#Energy[eV]	Flux[ph/s/0.1%bw/100mA]
2070.00	3.484350E+11 
2080.00	3.511776E+11 
2090.00	3.538576E+11 
2100.00	3.573166E+11 
2110.00	3.597133E+11 
2120.00	3.634310E+11 
2130.00	3.661682E+11 
2140.00	3.693275E+11 
2150.00	3.730452E+11 
2160.00	3.757497E+11 
2170.00	3.798078E+11 
2180.00	3.828746E+11 
2190.00	3.864561E+11 
2200.00	3.904162E+11 
2210.00	3.935193E+11 
2220.00	3.980061E+11 
2230.00	4.013261E+11 
2240.00	4.054208E+11 
2250.00	4.096381E+11 
2260.00	4.131049E+11 
2270.00	4.180587E+11 
2280.00	4.216310E+11 
2290.00	4.263253E+11 
2300.00	4.308961E+11 
2310.00	4.348737E+11 
2320.00	4.403229E+11 
2330.00	4.442932E+11 
2340.00	4.496239E+11 
2350.00	4.544290E+11 
2360.00	4.591932E+11 
2370.00	4.650925E+11 
2380.00	4.695251E+11 
2390.00	4.755660E+11 
2400.00	4.808626E+11 
2410.00	4.862533E+11 
2420.00	4.927048E+11 
2430.00	4.978196E+11 
2440.00	5.046006E+11 
2450.00	5.104672E+11 
2460.00	5.166511E+11 
2470.00	5.238304E+11 
2480.00	5.295935E+11 
2490.00	5.372195E+11 
2500.00	5.437016E+11 
2510.00	5.508701E+11 
2520.00	5.587685E+11 
2530.00	5.653268E+11 
2540.00	5.739987E+11 
2550.00	5.812761E+11 
2560.00	5.894686E+11 
2570.00	5.982276E+11 
2580.00	6.059026E+11 
2590.00	6.157184E+11 
2600.00	6.238149E+11 
2610.00	6.334530E+11 
2620.00	6.431846E+11 
2630.00	6.521196E+11 
2640.00	6.632788E+11 
2650.00	6.725410E+11 
2660.00	6.836886E+11 
2670.00	6.946365E+11 
2680.00	7.051361E+11 
2690.00	7.178050E+11 
2700.00	7.284653E+11 
2710.00	7.415516E+11 
2720.00	7.539421E+11 
2730.00	7.663580E+11 
2740.00	7.808330E+11 
2750.00	7.933942E+11 
2760.00	8.087345E+11 
2770.00	8.228726E+11 
2780.00	8.377419E+11 
2790.00	8.544459E+11 
2800.00	8.692008E+11 
2810.00	8.872492E+11 
2820.00	9.038534E+11 
2830.00	9.217137E+11 
2840.00	9.411779E+11 
2850.00	9.589206E+11 
2860.00	9.804339E+11 
2870.00	1.000145E+12 
2880.00	1.021856E+12 
2890.00	1.044994E+12 
2900.00	1.066983E+12 
2910.00	1.092971E+12 
2920.00	1.117054E+12 
2930.00	1.144161E+12 
2940.00	1.172520E+12 
2950.00	1.200457E+12 
2960.00	1.233361E+12 
2970.00	1.264754E+12 
2980.00	1.301109E+12 
2990.00	1.339263E+12 
3000.00	1.379141E+12 
3010.00	1.425400E+12 
3020.00	1.471213E+12 
3030.00	1.524220E+12 
3040.00	1.580104E+12 
3050.00	1.640825E+12 
3060.00	1.711714E+12 
3070.00	1.788596E+12 
3080.00	1.882900E+12 
3090.00	1.991659E+12 
3100.00	2.120127E+12 
3110.00	2.272247E+12 
3120.00	2.441404E+12 
3130.00	2.636346E+12 
3140.00	2.851336E+12 
3150.00	3.097797E+12 
3160.00	3.390159E+12 
3170.00	3.741347E+12 
3180.00	4.181329E+12 
3190.00	4.715192E+12 
3200.00	5.352564E+12 
3210.00	6.084974E+12 
3220.00	6.898687E+12 
3230.00	7.810620E+12 
3240.00	8.844721E+12 
3250.00	1.007188E+13 
3260.00	1.155615E+13 
3270.00	1.333399E+13 
3280.00	1.540619E+13 
3290.00	1.771676E+13 
3300.00	2.024980E+13 
3310.00	2.304275E+13 
3320.00	2.621582E+13 
3330.00	2.991618E+13 
3340.00	3.419136E+13 
3350.00	3.900069E+13 
3360.00	4.423714E+13 
3370.00	4.989546E+13 
3380.00	5.612795E+13 
3390.00	6.311396E+13 
3400.00	7.094004E+13 
3410.00	7.949464E+13 
3420.00	8.867673E+13 
3430.00	9.855843E+13 
3440.00	1.093189E+14 
3450.00	1.210773E+14 
3460.00	1.337397E+14 
3470.00	1.472424E+14 
3480.00	1.616766E+14 
3490.00	1.771642E+14 
3500.00	1.937414E+14 
3510.00	2.113489E+14 
3520.00	2.300556E+14 
3530.00	2.499563E+14 
3540.00	2.710793E+14 
3550.00	2.934852E+14 
3560.00	3.172318E+14 
3570.00	3.424355E+14 
3580.00	3.691845E+14 
3590.00	3.975970E+14 
3600.00	4.278619E+14 
3610.00	4.601507E+14 
3620.00	4.947656E+14 
3630.00	5.320679E+14 
3640.00	5.726052E+14 
3650.00	6.172758E+14 
3660.00	6.674468E+14 
3670.00	7.250007E+14 
3680.00	7.907112E+14 
3690.00	8.612650E+14 
3700.00	9.281579E+14 
3710.00	9.823900E+14 
3720.00	1.021271E+15 
3730.00	1.048751E+15 
3740.00	1.070474E+15 
3750.00	1.089966E+15 
3760.00	1.108544E+15 
3770.00	1.126678E+15 
3780.00	1.144414E+15 
3790.00	1.161821E+15 
3800.00	1.178914E+15 
3810.00	1.195632E+15 
3820.00	1.212058E+15 
3830.00	1.228088E+15 
3840.00	1.243784E+15 
3850.00	1.259132E+15 
3860.00	1.274074E+15 
3870.00	1.288732E+15 
3880.00	1.302972E+15 
3890.00	1.316927E+15 
3900.00	1.330560E+15 
3910.00	1.343839E+15 
3920.00	1.356938E+15 
3930.00	1.369652E+15 
3940.00	1.382226E+15 
3950.00	1.394534E+15 
3960.00	1.406576E+15 
3970.00	1.418570E+15 
3980.00	1.430134E+15 
3990.00	1.441722E+15 
4000.00	1.452912E+15 
4010.00	1.463806E+15 
4020.00	1.474576E+15 
4030.00	1.484342E+15 
4040.00	1.494058E+15 
4050.00	1.501926E+15 
4060.00	1.508418E+15 
4070.00	1.511566E+15 
4080.00	1.506115E+15 
4090.00	1.477015E+15 
4100.00	1.310845E+15 
4110.00	8.996267E+14 
4120.00	4.209219E+14 
4130.00	1.477212E+14 
4140.00	7.173343E+13 
4150.00	4.963535E+13 
4160.00	3.675280E+13 
4170.00	3.011256E+13 
4180.00	2.443711E+13 
4190.00	2.106386E+13 
4200.00	1.813632E+13 
4210.00	1.586774E+13 
4220.00	1.424736E+13 
4230.00	1.260819E+13 
4240.00	1.154235E+13 
4250.00	1.042900E+13 
4260.00	9.562109E+12 
4270.00	8.847518E+12 
4280.00	8.106872E+12 
4290.00	7.604124E+12 
4300.00	7.030681E+12 
4310.00	6.594915E+12 
4320.00	6.196505E+12 
4330.00	5.789199E+12 
4340.00	5.502670E+12 
4350.00	5.158886E+12 
4360.00	4.905834E+12 
4370.00	4.653262E+12 
4380.00	4.403255E+12 
4390.00	4.220209E+12 
4400.00	3.994642E+12 
4410.00	3.833749E+12 
4420.00	3.659938E+12 
4430.00	3.495327E+12 
4440.00	3.368924E+12 
4450.00	3.211936E+12 
4460.00	3.102894E+12 
4470.00	2.976427E+12 
4480.00	2.862751E+12 
4490.00	2.770161E+12 
4500.00	2.656391E+12 
4510.00	2.578774E+12 
4520.00	2.483017E+12 
4530.00	2.401674E+12 
4540.00	2.330954E+12 
4550.00	2.245959E+12 
4560.00	2.188545E+12 
4570.00	2.113793E+12 
4580.00	2.053998E+12 
4590.00	1.998053E+12 
4600.00	1.933173E+12 
4610.00	1.889196E+12 
4620.00	1.829667E+12 
4630.00	1.784692E+12 
4640.00	1.739167E+12 
4650.00	1.688895E+12 
4660.00	1.654164E+12 
4670.00	1.605907E+12 
4680.00	1.571494E+12 
4690.00	1.533694E+12 
4700.00	1.494368E+12 
4710.00	1.466150E+12 
4720.00	1.426645E+12 
4730.00	1.399791E+12 
4740.00	1.367800E+12 
4750.00	1.336683E+12 
4760.00	1.313232E+12 
4770.00	1.280625E+12 
4780.00	1.259378E+12 
4790.00	1.232015E+12 
4800.00	1.207210E+12 
4810.00	1.187306E+12 
4820.00	1.160215E+12 
4830.00	1.143086E+12 
4840.00	1.119503E+12 
4850.00	1.099640E+12 
4860.00	1.082462E+12 
4870.00	1.059856E+12 
4880.00	1.045845E+12 
4890.00	1.025345E+12 
4900.00	1.009399E+12 
4910.00	9.942807E+11 
4920.00	9.754457E+11 
4930.00	9.638138E+11 
4940.00	9.459113E+11 
4950.00	9.330937E+11 
4960.00	9.196820E+11 
4970.00	9.039872E+11 
4980.00	8.940538E+11 
4990.00	8.784421E+11 
5000.00	8.680400E+11 
5010.00	8.560438E+11 
5020.00	8.429847E+11 
5030.00	8.344759E+11 
5040.00	8.208260E+11 
5050.00	8.123951E+11 
5060.00	8.015580E+11 
5070.00	7.907795E+11 
5080.00	7.832518E+11 
5090.00	7.713750E+11 
5100.00	7.644654E+11 
5110.00	7.546637E+11 
5120.00	7.457594E+11 
5130.00	7.391266E+11 
5140.00	7.287899E+11 
5150.00	7.231945E+11 
5160.00	7.143756E+11 
5170.00	7.070972E+11 
5180.00	7.010568E+11 
5190.00	6.922627E+11 
5200.00	6.875475E+11 
5210.00	6.795413E+11 
5220.00	6.736697E+11 
5230.00	6.681895E+11 
5240.00	6.606275E+11 
5250.00	6.567475E+11 
5260.00	6.495135E+11 
5270.00	6.448261E+11 
5280.00	6.397732E+11 
5290.00	6.334763E+11 
5300.00	6.301472E+11 
5310.00	6.236930E+11 
5320.00	6.199816E+11 
5330.00	6.153690E+11 
5340.00	6.101058E+11 
5350.00	6.073647E+11 
5360.00	6.016498E+11 
5370.00	5.987556E+11 
5380.00	5.945849E+11 
5390.00	5.902059E+11 
5400.00	5.878747E+11 
5410.00	5.828770E+11 
5420.00	5.806956E+11 
5430.00	5.767899E+11 
5440.00	5.734723E+11 
5450.00	5.713818E+11 
5460.00	5.670417E+11 
5470.00	5.655140E+11 
5480.00	5.620416E+11 
5490.00	5.595221E+11 
5500.00	5.576346E+11 
5510.00	5.540713E+11 
5520.00	5.530698E+11 
5530.00	5.500164E+11 
5540.00	5.480504E+11 
5550.00	5.466168E+11 
5560.00	5.437242E+11 
5570.00	5.430239E+11 
5580.00	5.404309E+11 
5590.00	5.391826E+11 
5600.00	5.379486E+11 
5610.00	5.357314E+11 
5620.00	5.354568E+11 
5630.00	5.332614E+11 
5640.00	5.327061E+11 
5650.00	5.316875E+11 
5660.00	5.301280E+11 
5670.00	5.302872E+11 
5680.00	5.285109E+11 
5690.00	5.285525E+11 
5700.00	5.278848E+11 
5710.00	5.270435E+11 
5720.00	5.274801E+11 
5730.00	5.263099E+11 
5740.00	5.269174E+11 
5750.00	5.266119E+11 
5760.00	5.264789E+11 
5770.00	5.273568E+11 
5780.00	5.267905E+11 
5790.00	5.280589E+11 
5800.00	5.281860E+11 
5810.00	5.288458E+11 
5820.00	5.301982E+11 
5830.00	5.303397E+11 
5840.00	5.322165E+11 
5850.00	5.329555E+11 
5860.00	5.344726E+11 
5870.00	5.365253E+11 
5880.00	5.375544E+11 
5890.00	5.403590E+11 
5900.00	5.419167E+11 
5910.00	5.446237E+11 
5920.00	5.477157E+11 
5930.00	5.503567E+11 
5940.00	5.547100E+11 
5950.00	5.580556E+11 
5960.00	5.629489E+11 
5970.00	5.681591E+11 
5980.00	5.734091E+11 
5990.00	5.804046E+11 
6000.00	5.866692E+11 
6010.00	5.948386E+11 
6020.00	6.031041E+11 
6030.00	6.118114E+11 
6040.00	6.221803E+11 
6050.00	6.320392E+11 
6060.00	6.437851E+11 
6070.00	6.558781E+11 
6080.00	6.688178E+11 
6090.00	6.837211E+11 
6100.00	6.987775E+11 
6110.00	7.167457E+11 
6120.00	7.359293E+11 
6130.00	7.577726E+11 
6140.00	7.831659E+11 
6150.00	8.110482E+11 
6160.00	8.442416E+11 
6170.00	8.812133E+11 
6180.00	9.236487E+11 
6190.00	9.719112E+11 
6200.00	1.024919E+12 
6210.00	1.084918E+12 
6220.00	1.149605E+12 
6230.00	1.220415E+12 
6240.00	1.296623E+12 
6250.00	1.377219E+12 
6260.00	1.464066E+12 
6270.00	1.555050E+12 
6280.00	1.652692E+12 
6290.00	1.757202E+12 
6300.00	1.869826E+12 
6310.00	1.994121E+12 
6320.00	2.130678E+12 
6330.00	2.284425E+12 
6340.00	2.457339E+12 
6350.00	2.652480E+12 
6360.00	2.873380E+12 
6370.00	3.120152E+12 
6380.00	3.395288E+12 
6390.00	3.697322E+12 
6400.00	4.024865E+12 
6410.00	4.376674E+12 
6420.00	4.748668E+12 
6430.00	5.140706E+12 
6440.00	5.550201E+12 
6450.00	5.978479E+12 
6460.00	6.429172E+12 
6470.00	6.905925E+12 
6480.00	7.418431E+12 
6490.00	7.973979E+12 
6500.00	8.583473E+12 
6510.00	9.256042E+12 
6520.00	9.997702E+12 
6530.00	1.081403E+13 
6540.00	1.170307E+13 
6550.00	1.266165E+13 
6560.00	1.368212E+13 
6570.00	1.475463E+13 
6580.00	1.587235E+13 
6590.00	1.702835E+13 
6600.00	1.822405E+13 
6610.00	1.946529E+13 
6620.00	2.076422E+13 
6630.00	2.213949E+13 
6640.00	2.360846E+13 
6650.00	2.518990E+13 
6660.00	2.689467E+13 
6670.00	2.872588E+13 
6680.00	3.067877E+13 
6690.00	3.273800E+13 
6700.00	3.488722E+13 
6710.00	3.710814E+13 
6720.00	3.938988E+13 
6730.00	4.173230E+13 
6740.00	4.414467E+13 
6750.00	4.664857E+13 
6760.00	4.926772E+13 
6770.00	5.202507E+13 
6780.00	5.493496E+13 
6790.00	5.799717E+13 
6800.00	6.120081E+13 
6810.00	6.452321E+13 
6820.00	6.794163E+13 
6830.00	7.143957E+13 
6840.00	7.501132E+13 
6850.00	7.866824E+13 
6860.00	8.242891E+13 
6870.00	8.631664E+13 
6880.00	9.034734E+13 
6890.00	9.452373E+13 
6900.00	9.883629E+13 
6910.00	1.032637E+14 
6920.00	1.077866E+14 
6930.00	1.123922E+14 
6940.00	1.170793E+14 
6950.00	1.218597E+14 
6960.00	1.267461E+14 
6970.00	1.317498E+14 
6980.00	1.368702E+14 
6990.00	1.420972E+14 
7000.00	1.474169E+14 
7010.00	1.528158E+14 
7020.00	1.582905E+14 
7030.00	1.638426E+14 
7040.00	1.694772E+14 
7050.00	1.751975E+14 
7060.00	1.809987E+14 
7070.00	1.868740E+14 
7080.00	1.928138E+14 
7090.00	1.988122E+14 
7100.00	2.048675E+14 
7110.00	2.109770E+14 
7120.00	2.171394E+14 
7130.00	2.233489E+14 
7140.00	2.295995E+14 
7150.00	2.358852E+14 
7160.00	2.421998E+14 
7170.00	2.485397E+14 
7180.00	2.548988E+14 
7190.00	2.612715E+14 
7200.00	2.676517E+14 
7210.00	2.740317E+14 
7220.00	2.804062E+14 
7230.00	2.867672E+14 
7240.00	2.931083E+14 
7250.00	2.994223E+14 
7260.00	3.057007E+14 
7270.00	3.119374E+14 
7280.00	3.181233E+14 
7290.00	3.242523E+14 
7300.00	3.303172E+14 
7310.00	3.363113E+14 
7320.00	3.422305E+14 
7330.00	3.480675E+14 
7340.00	3.538143E+14 
7350.00	3.594536E+14 
7360.00	3.649540E+14 
7370.00	3.702670E+14 
7380.00	3.753233E+14 
7390.00	3.800476E+14 
7400.00	3.843695E+14 
7410.00	3.882445E+14 
7420.00	3.916659E+14 
7430.00	3.946608E+14 
7440.00	3.972833E+14 
7450.00	3.995935E+14 
7460.00	4.016449E+14 
7470.00	4.034778E+14 
7480.00	4.051148E+14 
7490.00	4.065691E+14 
7500.00	4.078432E+14 
7510.00	4.089375E+14 
7520.00	4.098495E+14 
7530.00	4.105748E+14 
7540.00	4.111114E+14 
7550.00	4.114546E+14 
7560.00	4.116019E+14 
7570.00	4.115503E+14 
7580.00	4.112962E+14 
7590.00	4.108389E+14 
7600.00	4.101746E+14 
7610.00	4.093027E+14 
7620.00	4.082217E+14 
7630.00	4.069297E+14 
7640.00	4.054276E+14 
7650.00	4.037135E+14 
7660.00	4.017883E+14 
7670.00	3.996522E+14 
7680.00	3.973050E+14 
7690.00	3.947490E+14 
7700.00	3.919837E+14 
7710.00	3.890119E+14 
7720.00	3.858348E+14 
7730.00	3.824535E+14 
7740.00	3.788715E+14 
7750.00	3.750895E+14 
7760.00	3.711112E+14 
7770.00	3.669383E+14 
7780.00	3.625732E+14 
7790.00	3.580197E+14 
7800.00	3.532787E+14 
7810.00	3.483549E+14 
7820.00	3.432496E+14 
7830.00	3.379658E+14 
7840.00	3.325069E+14 
7850.00	3.268740E+14 
7860.00	3.210713E+14 
7870.00	3.150999E+14 
7880.00	3.089625E+14 
7890.00	3.026619E+14 
7900.00	2.961984E+14 
7910.00	2.895759E+14 
7920.00	2.827943E+14 
7930.00	2.758560E+14 
7940.00	2.687625E+14 
7950.00	2.615136E+14 
7960.00	2.541121E+14 
7970.00	2.465572E+14 
7980.00	2.388504E+14 
7990.00	2.309920E+14 
8000.00	2.229815E+14 
8010.00	2.148205E+14 
8020.00	2.065072E+14 
8030.00	1.980427E+14 
8040.00	1.894266E+14 
8050.00	1.806577E+14 
8060.00	1.717373E+14 
8070.00	1.626629E+14 
8080.00	1.534359E+14 
8090.00	1.440552E+14 
8100.00	1.345202E+14 
8110.00	1.248327E+14 
8120.00	1.149907E+14 
8130.00	1.049976E+14 
8140.00	9.485398E+13 
8150.00	8.456343E+13 
8160.00	7.413332E+13 
8170.00	6.357305E+13 
8180.00	5.290968E+13 
8190.00	4.221397E+13 
8200.00	3.171621E+13 
8210.00	2.199967E+13 
8220.00	1.400111E+13 
8230.00	8.209038E+12 
8240.00	5.127135E+12 
8250.00	3.679683E+12 
8260.00	3.011333E+12 
8270.00	2.637835E+12 
8280.00	2.379358E+12 
8290.00	2.179264E+12 
8300.00	2.016256E+12 
8310.00	1.879418E+12 
8320.00	1.762176E+12 
8330.00	1.660144E+12 
8340.00	1.570244E+12 
8350.00	1.490259E+12 
8360.00	1.418506E+12 
8370.00	1.353673E+12 
8380.00	1.294697E+12 
8390.00	1.240843E+12 
8400.00	1.191423E+12 
8410.00	1.145837E+12 
8420.00	1.103698E+12 
8430.00	1.064574E+12 
8440.00	1.028168E+12 
8450.00	9.941820E+11 
8460.00	9.623625E+11 
8470.00	9.325665E+11 
8480.00	9.045338E+11 
8490.00	8.781882E+11 
8500.00	8.533158E+11 
8510.00	8.298133E+11 
8520.00	8.075986E+11 
8530.00	7.865272E+11 
8540.00	7.665622E+11 
8550.00	7.475998E+11 
8560.00	7.295532E+11 
8570.00	7.123833E+11 
8580.00	6.959892E+11 
8590.00	6.803954E+11 
8600.00	6.654846E+11 
8610.00	6.512476E+11 
8620.00	6.376259E+11 
8630.00	6.246062E+11 
8640.00	6.121209E+11 
8650.00	6.001719E+11 
8660.00	5.887432E+11 
8670.00	5.777800E+11 
8680.00	5.672261E+11 
8690.00	5.570936E+11 
8700.00	5.473802E+11 
8710.00	5.379959E+11 
8720.00	5.290002E+11 
8730.00	5.203377E+11 
8740.00	5.119995E+11 
8750.00	5.040013E+11 
8760.00	4.962743E+11 
8770.00	4.888772E+11 
8780.00	4.817406E+11 
8790.00	4.748923E+11 
8800.00	4.682768E+11 
8810.00	4.619075E+11 
8820.00	4.558181E+11 
8830.00	4.499238E+11 
8840.00	4.442485E+11 
8850.00	4.388500E+11 
8860.00	4.336798E+11 
8870.00	4.287363E+11 
8880.00	4.240434E+11 
8890.00	4.195838E+11 
8900.00	4.153573E+11 
8910.00	4.113823E+11 
8920.00	4.076327E+11 
8930.00	4.040980E+11 
8940.00	4.008387E+11 
8950.00	3.978156E+11 
8960.00	3.950256E+11 
8970.00	3.925134E+11 
8980.00	3.902518E+11 
8990.00	3.882704E+11 
9000.00	3.865148E+11 
9010.00	3.850134E+11 
9020.00	3.837596E+11 
9030.00	3.827101E+11 
9040.00	3.819559E+11 
9050.00	3.813946E+11 
9060.00	3.811251E+11 
9070.00	3.810747E+11 
9080.00	3.812542E+11 
9090.00	3.816608E+11 
9100.00	3.823246E+11 
9110.00	3.833019E+11 
9120.00	3.845286E+11 
9130.00	3.860810E+11 
9140.00	3.879566E+11 
9150.00	3.902265E+11 
9160.00	3.928920E+11 
9170.00	3.960421E+11 
9180.00	3.997084E+11 
9190.00	4.040089E+11 
9200.00	4.089386E+11 
9210.00	4.146217E+11 
9220.00	4.211505E+11 
9230.00	4.285658E+11 
9240.00	4.370038E+11 
9250.00	4.464998E+11 
9260.00	4.570759E+11 
9270.00	4.688418E+11 
9280.00	4.818009E+11 
9290.00	4.960120E+11 
9300.00	5.114331E+11 
9310.00	5.281038E+11 
9320.00	5.460064E+11 
9330.00	5.650785E+11 
9340.00	5.852919E+11 
9350.00	6.065743E+11 
9360.00	6.288911E+11 
9370.00	6.522040E+11 
9380.00	6.764581E+11 
9390.00	7.016652E+11 
9400.00	7.278208E+11 
9410.00	7.549852E+11 
9420.00	7.832609E+11 
9430.00	8.127517E+11 
9440.00	8.436186E+11 
9450.00	8.761647E+11 
9460.00	9.105690E+11 
9470.00	9.471398E+11 
9480.00	9.862501E+11 
9490.00	1.028208E+12 
9500.00	1.073421E+12 
9510.00	1.122218E+12 
9520.00	1.174938E+12 
9530.00	1.231859E+12 
9540.00	1.293209E+12 
9550.00	1.359124E+12 
9560.00	1.429672E+12 
9570.00	1.504809E+12 
9580.00	1.584453E+12 
9590.00	1.668320E+12 
9600.00	1.756180E+12 
9610.00	1.847613E+12 
9620.00	1.942331E+12 
9630.00	2.039982E+12 
9640.00	2.140236E+12 
9650.00	2.242856E+12 
9660.00	2.347750E+12 
9670.00	2.454947E+12 
9680.00	2.564578E+12 
9690.00	2.677041E+12 
9700.00	2.792780E+12 
9710.00	2.912532E+12 
9720.00	3.036941E+12 
9730.00	3.166902E+12 
9740.00	3.303337E+12 
9750.00	3.447044E+12 
9760.00	3.598809E+12 
9770.00	3.759212E+12 
9780.00	3.928696E+12 
9790.00	4.107428E+12 
9800.00	4.295350E+12 
9810.00	4.492059E+12 
9820.00	4.696955E+12 
9830.00	4.909258E+12 
9840.00	5.128042E+12 
9850.00	5.352285E+12 
9860.00	5.581016E+12 
9870.00	5.813449E+12 
9880.00	6.048996E+12 
9890.00	6.287354E+12 
9900.00	6.528534E+12 
9910.00	6.772934E+12 
9920.00	7.021275E+12 
9930.00	7.274513E+12 
9940.00	7.533877E+12 
9950.00	7.800578E+12 
9960.00	8.075870E+12 
9970.00	8.360829E+12 
9980.00	8.656144E+12 
9990.00	8.962252E+12 
10000.00	9.279109E+12 
10010.00	9.606218E+12 
10020.00	9.942675E+12 
10030.00	1.028727E+13 
10040.00	1.063859E+13 
10050.00	1.099514E+13 
10060.00	1.135560E+13 
10070.00	1.171883E+13 
10080.00	1.208411E+13 
10090.00	1.245119E+13 
10100.00	1.282027E+13 
10110.00	1.319190E+13 
10120.00	1.356710E+13 
10130.00	1.394697E+13 
10140.00	1.433267E+13 
10150.00	1.472521E+13 
10160.00	1.512523E+13 
10170.00	1.553306E+13 
10180.00	1.594845E+13 
10190.00	1.637073E+13 
10200.00	1.679887E+13 
10210.00	1.723158E+13 
10220.00	1.766749E+13 
10230.00	1.810536E+13 
10240.00	1.854417E+13 
10250.00	1.898324E+13 
10260.00	1.942246E+13 
10270.00	1.986195E+13 
10280.00	2.030228E+13 
10290.00	2.074408E+13 
10300.00	2.118811E+13 
10310.00	2.163491E+13 
10320.00	2.208482E+13 
10330.00	2.253777E+13 
10340.00	2.299339E+13 
10350.00	2.345107E+13 
10360.00	2.390994E+13 
10370.00	2.436917E+13 
10380.00	2.482801E+13 
10390.00	2.528593E+13 
10400.00	2.574265E+13 
10410.00	2.619825E+13 
10420.00	2.665285E+13 
10430.00	2.710684E+13 
10440.00	2.756053E+13 
10450.00	2.801414E+13 
10460.00	2.846776E+13 
10470.00	2.892124E+13 
10480.00	2.937429E+13 
10490.00	2.982662E+13 
10500.00	3.027787E+13 
10510.00	3.072780E+13 
10520.00	3.117639E+13 
10530.00	3.162360E+13 
10540.00	3.206971E+13 
10550.00	3.251486E+13 
10560.00	3.295936E+13 
10570.00	3.340338E+13 
10580.00	3.384706E+13 
10590.00	3.429047E+13 
10600.00	3.473369E+13 
10610.00	3.517687E+13 
10620.00	3.562014E+13 
10630.00	3.606384E+13 
10640.00	3.650835E+13 
10650.00	3.695414E+13 
10660.00	3.740166E+13 
10670.00	3.785143E+13 
10680.00	3.830397E+13 
10690.00	3.875981E+13 
10700.00	3.921959E+13 
10710.00	3.968401E+13 
10720.00	4.015391E+13 
10730.00	4.063018E+13 
10740.00	4.111385E+13 
10750.00	4.160605E+13 
10760.00	4.210801E+13 
10770.00	4.262107E+13 
10780.00	4.314674E+13 
10790.00	4.368657E+13 
10800.00	4.424244E+13 
10810.00	4.481638E+13 
10820.00	4.541061E+13 
10830.00	4.602766E+13 
10840.00	4.667032E+13 
10850.00	4.734168E+13 
10860.00	4.804522E+13 
10870.00	4.878489E+13 
10880.00	4.956506E+13 
10890.00	5.039083E+13 
10900.00	5.126801E+13 
10910.00	5.220332E+13 
10920.00	5.320459E+13 
10930.00	5.428119E+13 
10940.00	5.544419E+13 
10950.00	5.670696E+13 
10960.00	5.808558E+13 
10970.00	5.959919E+13 
10980.00	6.127005E+13 
10990.00	6.312289E+13 
11000.00	6.518362E+13 
11010.00	6.747647E+13 
11020.00	7.001976E+13 
11030.00	7.282062E+13 
11040.00	7.586905E+13 
11050.00	7.913268E+13 
11060.00	8.255412E+13 
11070.00	8.605173E+13 
11080.00	8.952516E+13 
