#Energy[eV]    Flux (1.1X0.18)mrad² [ph/s/100mA] 
100.00	2.078000E+12
110.00	2.013636E+12
120.00	1.955833E+12
130.00	1.904615E+12
140.00	1.858571E+12
150.00	1.816667E+12
160.00	1.778125E+12
170.00	1.742353E+12
180.00	1.709444E+12
190.00	1.678947E+12
200.00	1.651000E+12
210.00	1.624286E+12
220.00	1.599091E+12
230.00	1.575652E+12
240.00	1.553750E+12
250.00	1.532400E+12
260.00	1.512692E+12
270.00	1.493704E+12
280.00	1.475714E+12
290.00	1.458621E+12
300.00	1.442000E+12
310.00	1.426452E+12
320.00	1.411250E+12
330.00	1.396970E+12
340.00	1.382941E+12
350.00	1.369714E+12
360.00	1.356944E+12
370.00	1.344595E+12
380.00	1.332632E+12
390.00	1.321026E+12
400.00	1.309750E+12
410.00	1.299024E+12
420.00	1.288571E+12
430.00	1.278372E+12
440.00	1.268409E+12
450.00	1.258889E+12
460.00	1.249565E+12
470.00	1.240638E+12
480.00	1.231875E+12
490.00	1.223265E+12
500.00	1.215000E+12
510.00	1.206863E+12
520.00	1.199038E+12
530.00	1.191321E+12
540.00	1.183704E+12
550.00	1.176364E+12
560.00	1.169286E+12
570.00	1.162281E+12
580.00	1.155517E+12
590.00	1.148814E+12
600.00	1.142167E+12
610.00	1.135738E+12
620.00	1.129516E+12
630.00	1.123333E+12
640.00	1.117344E+12
650.00	1.111538E+12
660.00	1.105758E+12
670.00	1.100000E+12
680.00	1.094412E+12
690.00	1.088986E+12
700.00	1.083714E+12
710.00	1.078451E+12
720.00	1.073194E+12
730.00	1.068219E+12
740.00	1.063243E+12
750.00	1.058267E+12
760.00	1.053553E+12
770.00	1.048831E+12
780.00	1.044103E+12
790.00	1.039494E+12
800.00	1.035000E+12
810.00	1.030617E+12
820.00	1.026220E+12
830.00	1.021928E+12
840.00	1.017738E+12
850.00	1.013529E+12
860.00	1.009419E+12
870.00	1.005402E+12
880.00	1.001477E+12
890.00	9.975281E+11
900.00	9.936667E+11
910.00	9.897802E+11
920.00	9.860870E+11
930.00	9.823656E+11
940.00	9.787234E+11
950.00	9.750526E+11
960.00	9.715625E+11
970.00	9.680412E+11
980.00	9.644898E+11
990.00	9.611111E+11
1000.00	9.577000E+11
1010.00	9.543564E+11
1020.00	9.510784E+11
1030.00	9.477670E+11
1040.00	9.446154E+11
1050.00	9.414286E+11
1060.00	9.383019E+11
1070.00	9.355140E+11
1080.00	9.324074E+11
1090.00	9.293578E+11
1100.00	9.263636E+11
1110.00	9.234234E+11
1120.00	9.205357E+11
1130.00	9.176991E+11
1140.00	9.140351E+11
1150.00	9.113043E+11
1160.00	9.086207E+11
1170.00	9.059829E+11
1180.00	9.033898E+11
1190.00	9.008403E+11
1200.00	8.975000E+11
1210.00	8.950413E+11
1220.00	8.926230E+11
1230.00	8.902439E+11
1240.00	8.870968E+11
1250.00	8.848000E+11
1260.00	8.825397E+11
1270.00	8.795276E+11
1280.00	8.773438E+11
1290.00	8.751938E+11
1300.00	8.723077E+11
1310.00	8.702290E+11
1320.00	8.674242E+11
1330.00	8.654135E+11
1340.00	8.626866E+11
1350.00	8.607407E+11
1360.00	8.580882E+11
1370.00	8.562044E+11
1380.00	8.536232E+11
1390.00	8.517986E+11
1400.00	8.492857E+11
1410.00	8.468085E+11
1420.00	8.450704E+11
1430.00	8.426573E+11
1440.00	8.402778E+11
1450.00	8.386207E+11
1460.00	8.363014E+11
1470.00	8.340136E+11
1480.00	8.324324E+11
1490.00	8.302013E+11
1500.00	8.280000E+11
1510.00	8.258278E+11
1520.00	8.243421E+11
1530.00	8.222222E+11
1540.00	8.201299E+11
1550.00	8.180645E+11
1560.00	8.160256E+11
1570.00	8.140127E+11
1580.00	8.126582E+11
1590.00	8.106918E+11
1600.00	8.087500E+11
1610.00	8.068323E+11
1620.00	8.049383E+11
1630.00	8.030675E+11
1640.00	8.012195E+11
1650.00	7.993939E+11
1660.00	7.975904E+11
1670.00	7.958084E+11
1680.00	7.940476E+11
1690.00	7.923077E+11
1700.00	7.905882E+11
1710.00	7.888889E+11
1720.00	7.872093E+11
1730.00	7.855491E+11
1740.00	7.839080E+11
1750.00	7.817143E+11
1760.00	7.801136E+11
1770.00	7.785311E+11
1780.00	7.769663E+11
1790.00	7.754190E+11
1800.00	7.738889E+11
1810.00	7.718232E+11
1820.00	7.703297E+11
1830.00	7.688525E+11
1840.00	7.673913E+11
1850.00	7.659459E+11
1860.00	7.639785E+11
1870.00	7.625668E+11
1880.00	7.611702E+11
1890.00	7.592593E+11
1900.00	7.578947E+11
1910.00	7.565445E+11
1920.00	7.546875E+11
1930.00	7.533679E+11
1940.00	7.520619E+11
1950.00	7.502564E+11
1960.00	7.489796E+11
1970.00	7.477157E+11
1980.00	7.459596E+11
1990.00	7.447236E+11
2000.00	7.430000E+11
2010.00	7.417910E+11
2020.00	7.400990E+11
2030.00	7.389163E+11
2040.00	7.372549E+11
2050.00	7.360976E+11
2060.00	7.344660E+11
2070.00	7.333333E+11
2080.00	7.317308E+11
2090.00	7.306220E+11
2100.00	7.290476E+11
2110.00	7.279621E+11
2120.00	7.264151E+11
2130.00	7.253521E+11
2140.00	7.238318E+11
2150.00	7.223256E+11
2160.00	7.212963E+11
2170.00	7.198157E+11
2180.00	7.188073E+11
2190.00	7.173516E+11
2200.00	7.159091E+11
2210.00	7.149321E+11
2220.00	7.135135E+11
2230.00	7.121076E+11
2240.00	7.111607E+11
2250.00	7.097778E+11
2260.00	7.084071E+11
2270.00	7.070485E+11
2280.00	7.061404E+11
2290.00	7.048035E+11
2300.00	7.034783E+11
2310.00	7.021645E+11
2320.00	7.012931E+11
2330.00	7.000000E+11
2340.00	6.987179E+11
2350.00	6.974468E+11
2360.00	6.961864E+11
2370.00	6.953586E+11
2380.00	6.941176E+11
2390.00	6.928870E+11
2400.00	6.916667E+11
2410.00	6.904564E+11
2420.00	6.892562E+11
2430.00	6.880658E+11
2440.00	6.868852E+11
2450.00	6.861224E+11
2460.00	6.849593E+11
2470.00	6.838057E+11
2480.00	6.826613E+11
2490.00	6.815261E+11
2500.00	6.804000E+11
2510.00	6.792829E+11
2520.00	6.781746E+11
2530.00	6.770751E+11
2540.00	6.759843E+11
2550.00	6.749020E+11
2560.00	6.738281E+11
2570.00	6.727626E+11
2580.00	6.717054E+11
2590.00	6.706564E+11
2600.00	6.696154E+11
2610.00	6.685824E+11
2620.00	6.675573E+11
2630.00	6.665399E+11
2640.00	6.655303E+11
2650.00	6.641509E+11
2660.00	6.631579E+11
2670.00	6.621723E+11
2680.00	6.611940E+11
2690.00	6.602230E+11
2700.00	6.592593E+11
2710.00	6.583026E+11
2720.00	6.573529E+11
2730.00	6.560440E+11
2740.00	6.551095E+11
2750.00	6.541818E+11
2760.00	6.532609E+11
2770.00	6.523466E+11
2780.00	6.510791E+11
2790.00	6.501792E+11
2800.00	6.492857E+11
2810.00	6.483986E+11
2820.00	6.475177E+11
2830.00	6.462898E+11
2840.00	6.454225E+11
2850.00	6.445614E+11
2860.00	6.437063E+11
2870.00	6.425087E+11
2880.00	6.416667E+11
2890.00	6.408304E+11
2900.00	6.396552E+11
2910.00	6.388316E+11
2920.00	6.380137E+11
2930.00	6.368601E+11
2940.00	6.360544E+11
2950.00	6.352542E+11
2960.00	6.341216E+11
2970.00	6.333333E+11
2980.00	6.325503E+11
2990.00	6.314381E+11
3000.00	6.306667E+11
3010.00	6.299003E+11
3020.00	6.288079E+11
3030.00	6.280528E+11
3040.00	6.269737E+11
3050.00	6.262295E+11
3060.00	6.251634E+11
3070.00	6.244300E+11
3080.00	6.237013E+11
3090.00	6.226537E+11
3100.00	6.219355E+11
3110.00	6.209003E+11
3120.00	6.201923E+11
3130.00	6.191693E+11
3140.00	6.184713E+11
3150.00	6.174603E+11
3160.00	6.167722E+11
3170.00	6.157729E+11
3180.00	6.150943E+11
3190.00	6.141066E+11
3200.00	6.134375E+11
3210.00	6.124611E+11
3220.00	6.118012E+11
3230.00	6.108359E+11
3240.00	6.098765E+11
3250.00	6.092308E+11
3260.00	6.082822E+11
3270.00	6.076453E+11
3280.00	6.067073E+11
3290.00	6.057751E+11
3300.00	6.051515E+11
3310.00	6.042296E+11
3320.00	6.036145E+11
3330.00	6.027027E+11
3340.00	6.017964E+11
3350.00	6.011940E+11
3360.00	6.002976E+11
3370.00	5.994065E+11
3380.00	5.988166E+11
3390.00	5.979351E+11
3400.00	5.970588E+11
3410.00	5.964809E+11
3420.00	5.956140E+11
3430.00	5.947522E+11
3440.00	5.941860E+11
3450.00	5.933333E+11
3460.00	5.924855E+11
3470.00	5.916427E+11
3480.00	5.910920E+11
3490.00	5.902579E+11
3500.00	5.894286E+11
3510.00	5.886040E+11
3520.00	5.880682E+11
3530.00	5.872521E+11
3540.00	5.864407E+11
3550.00	5.856338E+11
3560.00	5.851124E+11
3570.00	5.843137E+11
3580.00	5.835196E+11
3590.00	5.827298E+11
3600.00	5.819444E+11
3610.00	5.811634E+11
3620.00	5.806630E+11
3630.00	5.798898E+11
3640.00	5.791209E+11
3650.00	5.783562E+11
3660.00	5.775956E+11
3670.00	5.768392E+11
3680.00	5.763587E+11
3690.00	5.756098E+11
3700.00	5.748649E+11
3710.00	5.741240E+11
3720.00	5.733871E+11
3730.00	5.726542E+11
3740.00	5.719251E+11
3750.00	5.712000E+11
3760.00	5.704787E+11
3770.00	5.697613E+11
3780.00	5.690476E+11
3790.00	5.686016E+11
3800.00	5.678947E+11
3810.00	5.671916E+11
3820.00	5.664921E+11
3830.00	5.657963E+11
3840.00	5.651042E+11
3850.00	5.644156E+11
3860.00	5.637306E+11
3870.00	5.630491E+11
3880.00	5.623711E+11
3890.00	5.616967E+11
3900.00	5.610256E+11
3910.00	5.603581E+11
3920.00	5.596939E+11
3930.00	5.590331E+11
3940.00	5.583756E+11
3950.00	5.577215E+11
3960.00	5.570707E+11
3970.00	5.564232E+11
3980.00	5.555276E+11
3990.00	5.548872E+11
4000.00	5.542500E+11
4010.00	5.536160E+11
4020.00	5.529851E+11
4030.00	5.523573E+11
4040.00	5.517327E+11
4050.00	5.511111E+11
4060.00	5.504926E+11
4070.00	5.498771E+11
4080.00	5.492647E+11
4090.00	5.484108E+11
4100.00	5.478049E+11
4110.00	5.472019E+11
4120.00	5.466019E+11
4130.00	5.460048E+11
4140.00	5.454106E+11
4150.00	5.448193E+11
4160.00	5.439904E+11
4170.00	5.434053E+11
4180.00	5.428230E+11
4190.00	5.422434E+11
4200.00	5.416667E+11
4210.00	5.410926E+11
4220.00	5.402844E+11
4230.00	5.397163E+11
4240.00	5.391509E+11
4250.00	5.385882E+11
4260.00	5.377934E+11
4270.00	5.372365E+11
4280.00	5.366822E+11
4290.00	5.361305E+11
4300.00	5.355814E+11
4310.00	5.348028E+11
4320.00	5.342593E+11
4330.00	5.337182E+11
4340.00	5.331797E+11
4350.00	5.324138E+11
4360.00	5.318807E+11
4370.00	5.313501E+11
4380.00	5.305936E+11
4390.00	5.300683E+11
4400.00	5.295455E+11
4410.00	5.287982E+11
4420.00	5.282805E+11
4430.00	5.277652E+11
4440.00	5.272523E+11
4450.00	5.265169E+11
4460.00	5.260090E+11
4470.00	5.255034E+11
4480.00	5.247768E+11
4490.00	5.242762E+11
4500.00	5.237778E+11
4510.00	5.230599E+11
4520.00	5.225664E+11
4530.00	5.218543E+11
4540.00	5.213656E+11
4550.00	5.208791E+11
4560.00	5.201754E+11
4570.00	5.196937E+11
4580.00	5.189956E+11
4590.00	5.185185E+11
4600.00	5.180435E+11
4610.00	5.173536E+11
4620.00	5.168831E+11
4630.00	5.161987E+11
4640.00	5.157328E+11
4650.00	5.152688E+11
4660.00	5.145923E+11
4670.00	5.141328E+11
4680.00	5.134615E+11
4690.00	5.130064E+11
4700.00	5.123404E+11
4710.00	5.118896E+11
4720.00	5.112288E+11
4730.00	5.107822E+11
4740.00	5.101266E+11
4750.00	5.096842E+11
4760.00	5.090336E+11
4770.00	5.085954E+11
4780.00	5.079498E+11
4790.00	5.075157E+11
4800.00	5.068750E+11
4810.00	5.064449E+11
4820.00	5.058091E+11
4830.00	5.053830E+11
4840.00	5.047521E+11
4850.00	5.043299E+11
4860.00	5.037037E+11
4870.00	5.032854E+11
4880.00	5.026639E+11
4890.00	5.022495E+11
4900.00	5.016327E+11
4910.00	5.012220E+11
4920.00	5.006098E+11
4930.00	5.000000E+11
4940.00	4.995951E+11
4950.00	4.989899E+11
4960.00	4.985887E+11
4970.00	4.979879E+11
4980.00	4.973896E+11
4990.00	4.969940E+11
5000.00	4.964000E+11
5010.00	4.960080E+11
5020.00	4.954183E+11
5030.00	4.948310E+11
5040.00	4.944444E+11
5050.00	4.938614E+11
5060.00	4.932806E+11
5070.00	4.928994E+11
5080.00	4.923228E+11
5090.00	4.919450E+11
5100.00	4.913725E+11
5110.00	4.908023E+11
5120.00	4.904297E+11
5130.00	4.898635E+11
5140.00	4.892996E+11
5150.00	4.889320E+11
5160.00	4.883721E+11
5170.00	4.878143E+11
5180.00	4.872587E+11
5190.00	4.868979E+11
5200.00	4.863462E+11
5210.00	4.857965E+11
5220.00	4.854406E+11
5230.00	4.848948E+11
5240.00	4.843511E+11
5250.00	4.838095E+11
5260.00	4.834601E+11
5270.00	4.829222E+11
5280.00	4.823864E+11
5290.00	4.818526E+11
5300.00	4.815094E+11
5310.00	4.809793E+11
5320.00	4.804511E+11
5330.00	4.799250E+11
5340.00	4.795880E+11
5350.00	4.790654E+11
5360.00	4.785448E+11
5370.00	4.780261E+11
5380.00	4.776952E+11
5390.00	4.771800E+11
5400.00	4.766667E+11
5410.00	4.761553E+11
5420.00	4.756458E+11
5430.00	4.753223E+11
5440.00	4.748162E+11
5450.00	4.743119E+11
5460.00	4.738095E+11
5470.00	4.733090E+11
5480.00	4.728102E+11
5490.00	4.724954E+11
5500.00	4.720000E+11
5510.00	4.715064E+11
5520.00	4.710145E+11
5530.00	4.705244E+11
5540.00	4.700361E+11
5550.00	4.697297E+11
5560.00	4.692446E+11
5570.00	4.687612E+11
5580.00	4.682796E+11
5590.00	4.677996E+11
5600.00	4.673214E+11
5610.00	4.668449E+11
5620.00	4.663701E+11
5630.00	4.658970E+11
5640.00	4.656028E+11
5650.00	4.651327E+11
5660.00	4.646643E+11
5670.00	4.641975E+11
5680.00	4.637324E+11
5690.00	4.632689E+11
5700.00	4.628070E+11
5710.00	4.623468E+11
5720.00	4.618881E+11
5730.00	4.614311E+11
5740.00	4.609756E+11
5750.00	4.605217E+11
5760.00	4.600694E+11
5770.00	4.596187E+11
5780.00	4.591696E+11
5790.00	4.587219E+11
5800.00	4.584483E+11
5810.00	4.580034E+11
5820.00	4.575601E+11
5830.00	4.571184E+11
5840.00	4.566781E+11
5850.00	4.562393E+11
5860.00	4.558020E+11
5870.00	4.553663E+11
5880.00	4.549320E+11
5890.00	4.544992E+11
5900.00	4.540678E+11
5910.00	4.536379E+11
5920.00	4.532095E+11
5930.00	4.527825E+11
5940.00	4.523569E+11
5950.00	4.517647E+11
5960.00	4.513423E+11
5970.00	4.509213E+11
5980.00	4.505017E+11
5990.00	4.500835E+11
6000.00	4.496667E+11
6010.00	4.492512E+11
6020.00	4.488372E+11
6030.00	4.484245E+11
6040.00	4.480132E+11
6050.00	4.476033E+11
6060.00	4.471947E+11
6070.00	4.467875E+11
6080.00	4.463816E+11
6090.00	4.459770E+11
6100.00	4.454098E+11
6110.00	4.450082E+11
6120.00	4.446078E+11
6130.00	4.442088E+11
6140.00	4.438111E+11
6150.00	4.434146E+11
6160.00	4.430195E+11
6170.00	4.426256E+11
6180.00	4.422330E+11
6190.00	4.416801E+11
6200.00	4.412903E+11
6210.00	4.409018E+11
6220.00	4.405145E+11
6230.00	4.401284E+11
6240.00	4.397436E+11
6250.00	4.393600E+11
6260.00	4.388179E+11
6270.00	4.384370E+11
6280.00	4.380573E+11
6290.00	4.376789E+11
6300.00	4.373016E+11
6310.00	4.369255E+11
6320.00	4.363924E+11
6330.00	4.360190E+11
6340.00	4.356467E+11
6350.00	4.352756E+11
6360.00	4.349057E+11
6370.00	4.343799E+11
6380.00	4.340125E+11
6390.00	4.336463E+11
6400.00	4.332812E+11
6410.00	4.329173E+11
6420.00	4.323988E+11
6430.00	4.320373E+11
6440.00	4.316770E+11
6450.00	4.313178E+11
6460.00	4.309598E+11
6470.00	4.304482E+11
6480.00	4.300926E+11
6490.00	4.297381E+11
6500.00	4.293846E+11
6510.00	4.288786E+11
6520.00	4.285276E+11
6530.00	4.281776E+11
6540.00	4.278287E+11
6550.00	4.273282E+11
6560.00	4.269817E+11
6570.00	4.266362E+11
6580.00	4.261398E+11
6590.00	4.257967E+11
6600.00	4.254545E+11
6610.00	4.251135E+11
6620.00	4.246224E+11
6630.00	4.242836E+11
6640.00	4.239458E+11
6650.00	4.234586E+11
6660.00	4.231231E+11
6670.00	4.227886E+11
6680.00	4.223054E+11
6690.00	4.219731E+11
6700.00	4.216418E+11
6710.00	4.211624E+11
6720.00	4.208333E+11
6730.00	4.205052E+11
6740.00	4.200297E+11
6750.00	4.197037E+11
6760.00	4.193787E+11
6770.00	4.189069E+11
6780.00	4.185841E+11
6790.00	4.182622E+11
6800.00	4.177941E+11
6810.00	4.174743E+11
6820.00	4.171554E+11
6830.00	4.166911E+11
6840.00	4.163743E+11
6850.00	4.160584E+11
6860.00	4.155977E+11
6870.00	4.152838E+11
6880.00	4.148256E+11
6890.00	4.145138E+11
6900.00	4.142029E+11
6910.00	4.137482E+11
6920.00	4.134393E+11
6930.00	4.129870E+11
6940.00	4.126801E+11
6950.00	4.123741E+11
6960.00	4.119253E+11
6970.00	4.116212E+11
6980.00	4.111748E+11
6990.00	4.108727E+11
7000.00	4.105714E+11
7010.00	4.101284E+11
7020.00	4.098291E+11
7030.00	4.093883E+11
7040.00	4.090909E+11
7050.00	4.086525E+11
7060.00	4.083569E+11
7070.00	4.079208E+11
7080.00	4.076271E+11
7090.00	4.071932E+11
7100.00	4.069014E+11
7110.00	4.066104E+11
7120.00	4.061798E+11
7130.00	4.058906E+11
7140.00	4.054622E+11
7150.00	4.051748E+11
7160.00	4.047486E+11
7170.00	4.044630E+11
7180.00	4.040390E+11
7190.00	4.037552E+11
7200.00	4.033333E+11
7210.00	4.030513E+11
7220.00	4.026316E+11
7230.00	4.023513E+11
7240.00	4.019337E+11
7250.00	4.016552E+11
7260.00	4.012397E+11
7270.00	4.009629E+11
7280.00	4.005495E+11
7290.00	4.002743E+11
7300.00	3.998630E+11
7310.00	3.995896E+11
7320.00	3.991803E+11
7330.00	3.987722E+11
7340.00	3.985014E+11
7350.00	3.980952E+11
7360.00	3.978261E+11
7370.00	3.974220E+11
7380.00	3.971545E+11
7390.00	3.967524E+11
7400.00	3.964865E+11
7410.00	3.960864E+11
7420.00	3.956873E+11
7430.00	3.954240E+11
7440.00	3.950269E+11
7450.00	3.947651E+11
7460.00	3.943700E+11
7470.00	3.941098E+11
7480.00	3.937166E+11
7490.00	3.933244E+11
7500.00	3.930667E+11
7510.00	3.926764E+11
7520.00	3.924202E+11
7530.00	3.920319E+11
7540.00	3.916446E+11
7550.00	3.913907E+11
7560.00	3.910053E+11
7570.00	3.907530E+11
7580.00	3.903694E+11
7590.00	3.899868E+11
7600.00	3.897368E+11
7610.00	3.893561E+11
7620.00	3.889764E+11
7630.00	3.887287E+11
7640.00	3.883508E+11
7650.00	3.879739E+11
7660.00	3.877285E+11
7670.00	3.873533E+11
7680.00	3.871094E+11
7690.00	3.867360E+11
7700.00	3.863636E+11
7710.00	3.861219E+11
7720.00	3.857513E+11
7730.00	3.853816E+11
7740.00	3.851421E+11
7750.00	3.847742E+11
7760.00	3.844072E+11
7770.00	3.841699E+11
7780.00	3.838046E+11
7790.00	3.834403E+11
7800.00	3.830769E+11
7810.00	3.828425E+11
7820.00	3.824808E+11
7830.00	3.821201E+11
7840.00	3.818878E+11
7850.00	3.815287E+11
7860.00	3.811705E+11
7870.00	3.809403E+11
7880.00	3.805838E+11
7890.00	3.802281E+11
7900.00	3.798734E+11
7910.00	3.796460E+11
7920.00	3.792929E+11
7930.00	3.789407E+11
7940.00	3.787154E+11
7950.00	3.783648E+11
7960.00	3.780151E+11
7970.00	3.776662E+11
7980.00	3.774436E+11
7990.00	3.770964E+11
8000.00	3.767500E+11
8010.00	3.764045E+11
8020.00	3.761845E+11
8030.00	3.758406E+11
8040.00	3.754975E+11
8050.00	3.751553E+11
8060.00	3.749380E+11
8070.00	3.745973E+11
8080.00	3.742574E+11
8090.00	3.739184E+11
8100.00	3.735802E+11
8110.00	3.733662E+11
8120.00	3.730296E+11
8130.00	3.726937E+11
8140.00	3.723587E+11
8150.00	3.720245E+11
8160.00	3.718137E+11
8170.00	3.714810E+11
8180.00	3.711491E+11
8190.00	3.708181E+11
8200.00	3.704878E+11
8210.00	3.702801E+11
8220.00	3.699513E+11
8230.00	3.696233E+11
8240.00	3.692961E+11
8250.00	3.689697E+11
8260.00	3.687651E+11
8270.00	3.684401E+11
8280.00	3.681159E+11
8290.00	3.677925E+11
8300.00	3.674699E+11
8310.00	3.671480E+11
8320.00	3.669471E+11
8330.00	3.666267E+11
8340.00	3.663070E+11
8350.00	3.659880E+11
8360.00	3.656699E+11
8370.00	3.653524E+11
8380.00	3.650358E+11
8390.00	3.648391E+11
8400.00	3.645238E+11
8410.00	3.642093E+11
8420.00	3.638955E+11
8430.00	3.635824E+11
8440.00	3.632701E+11
8450.00	3.629586E+11
8460.00	3.626478E+11
8470.00	3.624557E+11
8480.00	3.621462E+11
8490.00	3.618375E+11
8500.00	3.615294E+11
8510.00	3.612221E+11
8520.00	3.609155E+11
8530.00	3.606096E+11
8540.00	3.603044E+11
8550.00	3.600000E+11
8560.00	3.596963E+11
8570.00	3.595099E+11
8580.00	3.592075E+11
8590.00	3.589057E+11
8600.00	3.586047E+11
8610.00	3.583043E+11
8620.00	3.580046E+11
8630.00	3.577057E+11
8640.00	3.574074E+11
8650.00	3.571098E+11
8660.00	3.568129E+11
8670.00	3.565167E+11
8680.00	3.562212E+11
8690.00	3.559264E+11
8700.00	3.556322E+11
8710.00	3.553387E+11
8720.00	3.551606E+11
8730.00	3.548683E+11
8740.00	3.545767E+11
8750.00	3.542857E+11
8760.00	3.539954E+11
8770.00	3.537058E+11
8780.00	3.534169E+11
8790.00	3.531286E+11
8800.00	3.528409E+11
8810.00	3.525539E+11
8820.00	3.522676E+11
8830.00	3.519819E+11
8840.00	3.516968E+11
8850.00	3.514124E+11
8860.00	3.511287E+11
8870.00	3.508455E+11
8880.00	3.505631E+11
8890.00	3.502812E+11
8900.00	3.500000E+11
8910.00	3.497194E+11
8920.00	3.494395E+11
8930.00	3.491601E+11
8940.00	3.488814E+11
8950.00	3.486034E+11
8960.00	3.483259E+11
8970.00	3.480491E+11
8980.00	3.477728E+11
8990.00	3.474972E+11
9000.00	3.472222E+11
9010.00	3.469478E+11
9020.00	3.466741E+11
9030.00	3.464009E+11
9040.00	3.461283E+11
9050.00	3.458564E+11
9060.00	3.455850E+11
9070.00	3.452040E+11
9080.00	3.449339E+11
9090.00	3.446645E+11
9100.00	3.443956E+11
9110.00	3.441273E+11
9120.00	3.438596E+11
9130.00	3.435926E+11
9140.00	3.433260E+11
9150.00	3.430601E+11
9160.00	3.427948E+11
9170.00	3.425300E+11
9180.00	3.422658E+11
9190.00	3.420022E+11
9200.00	3.417391E+11
9210.00	3.414767E+11
9220.00	3.412148E+11
9230.00	3.408451E+11
9240.00	3.405844E+11
9250.00	3.403243E+11
9260.00	3.400648E+11
9270.00	3.398058E+11
9280.00	3.395474E+11
9290.00	3.392896E+11
9300.00	3.390323E+11
9310.00	3.387755E+11
9320.00	3.385193E+11
9330.00	3.381565E+11
9340.00	3.379015E+11
9350.00	3.376471E+11
9360.00	3.373932E+11
9370.00	3.371398E+11
9380.00	3.368870E+11
9390.00	3.366347E+11
9400.00	3.363830E+11
9410.00	3.360255E+11
9420.00	3.357749E+11
9430.00	3.355249E+11
9440.00	3.352754E+11
9450.00	3.350265E+11
9460.00	3.347780E+11
9470.00	3.345301E+11
9480.00	3.341772E+11
9490.00	3.339305E+11
9500.00	3.336842E+11
9510.00	3.334385E+11
9520.00	3.331933E+11
9530.00	3.329486E+11
9540.00	3.327044E+11
9550.00	3.323560E+11
9560.00	3.321130E+11
9570.00	3.318704E+11
9580.00	3.316284E+11
9590.00	3.313869E+11
9600.00	3.311458E+11
9610.00	3.308012E+11
9620.00	3.305613E+11
9630.00	3.303219E+11
