#Energy[eV]    Flux (1.1X0.18)mrad² [ph/s/100mA] 
100.00	2.073282E+12
110.00	2.008350E+12
120.00	1.949486E+12
130.00	1.896493E+12
140.00	1.847860E+12
150.00	1.802549E+12
160.00	1.760021E+12
170.00	1.720138E+12
180.00	1.683480E+12
190.00	1.649927E+12
200.00	1.619774E+12
210.00	1.591703E+12
220.00	1.565681E+12
230.00	1.541773E+12
240.00	1.519849E+12
250.00	1.498606E+12
260.00	1.479134E+12
270.00	1.460479E+12
280.00	1.442831E+12
290.00	1.426099E+12
300.00	1.409822E+12
310.00	1.394379E+12
320.00	1.379564E+12
330.00	1.365461E+12
340.00	1.352148E+12
350.00	1.339415E+12
360.00	1.327095E+12
370.00	1.315166E+12
380.00	1.303566E+12
390.00	1.292326E+12
400.00	1.281362E+12
410.00	1.270933E+12
420.00	1.260780E+12
430.00	1.250814E+12
440.00	1.241094E+12
450.00	1.231807E+12
460.00	1.222645E+12
470.00	1.213889E+12
480.00	1.205327E+12
490.00	1.197236E+12
500.00	1.189485E+12
510.00	1.181258E+12
520.00	1.171841E+12
530.00	1.165224E+12
540.00	1.157992E+12
550.00	1.150927E+12
560.00	1.144071E+12
570.00	1.137257E+12
580.00	1.130657E+12
590.00	1.124095E+12
600.00	1.117552E+12
610.00	1.110862E+12
620.00	1.104963E+12
630.00	1.098958E+12
640.00	1.093118E+12
650.00	1.087443E+12
660.00	1.081785E+12
670.00	1.076141E+12
680.00	1.070654E+12
690.00	1.065317E+12
700.00	1.060117E+12
710.00	1.054899E+12
720.00	1.049555E+12
730.00	1.044445E+12
740.00	1.039649E+12
750.00	1.034811E+12
760.00	1.030214E+12
770.00	1.025601E+12
780.00	1.020977E+12
790.00	1.016465E+12
800.00	1.012063E+12
810.00	1.007769E+12
820.00	1.003458E+12
830.00	9.992498E+11
840.00	9.951394E+11
850.00	9.910105E+11
860.00	9.869775E+11
870.00	9.830356E+11
880.00	9.791833E+11
890.00	9.753085E+11
900.00	9.715196E+11
910.00	9.677054E+11
920.00	9.640804E+11
930.00	9.604284E+11
940.00	9.568585E+11
950.00	9.532604E+11
960.00	9.498383E+11
970.00	9.463884E+11
980.00	9.429166E+11
990.00	9.396277E+11
1000.00	9.363682E+11
1010.00	9.331763E+11
1020.00	9.300237E+11
1030.00	9.268252E+11
1040.00	9.237750E+11
1050.00	9.206846E+11
1060.00	9.176484E+11
1070.00	9.149406E+11
1080.00	9.119181E+11
1090.00	9.089486E+11
1100.00	9.060310E+11
1110.00	9.031648E+11
1120.00	9.003476E+11
1130.00	8.975789E+11
1140.00	8.940000E+11
1150.00	8.913318E+11
1160.00	8.887090E+11
1170.00	8.861298E+11
1180.00	8.835931E+11
1190.00	8.810977E+11
1200.00	8.778286E+11
1210.00	8.754197E+11
1220.00	8.730503E+11
1230.00	8.707196E+11
1240.00	8.676370E+11
1250.00	8.653841E+11
1260.00	8.631781E+11
1270.00	8.602407E+11
1280.00	8.581106E+11
1290.00	8.560125E+11
1300.00	8.531929E+11
1310.00	8.511609E+11
1320.00	8.484184E+11
1330.00	8.464575E+11
1340.00	8.438040E+11
1350.00	8.419186E+11
1360.00	8.393395E+11
1370.00	8.375095E+11
1380.00	8.349959E+11
1390.00	8.332199E+11
1400.00	8.307737E+11
1410.00	8.283636E+11
1420.00	8.266751E+11
1430.00	8.243237E+11
1440.00	8.220039E+11
1450.00	8.203870E+11
1460.00	8.181212E+11
1470.00	8.158845E+11
1480.00	8.143359E+11
1490.00	8.121514E+11
1500.00	8.099922E+11
1510.00	8.078603E+11
1520.00	8.063988E+11
1530.00	8.043144E+11
1540.00	8.022552E+11
1550.00	8.002197E+11
1560.00	7.982129E+11
1570.00	7.962247E+11
1580.00	7.948803E+11
1590.00	7.929341E+11
1600.00	7.910105E+11
1610.00	7.891091E+11
1620.00	7.872282E+11
1630.00	7.853686E+11
1640.00	7.835286E+11
1650.00	7.817090E+11
1660.00	7.799080E+11
1670.00	7.781261E+11
1680.00	7.763625E+11
1690.00	7.746172E+11
1700.00	7.728892E+11
1710.00	7.711786E+11
1720.00	7.694838E+11
1730.00	7.678056E+11
1740.00	7.661442E+11
1750.00	7.639388E+11
1760.00	7.623103E+11
1770.00	7.606953E+11
1780.00	7.590939E+11
1790.00	7.575070E+11
1800.00	7.559326E+11
1810.00	7.538297E+11
1820.00	7.522829E+11
1830.00	7.507464E+11
1840.00	7.492200E+11
1850.00	7.477034E+11
1860.00	7.456712E+11
1870.00	7.441748E+11
1880.00	7.426861E+11
1890.00	7.406876E+11
1900.00	7.392135E+11
1910.00	7.377438E+11
1920.00	7.357697E+11
1930.00	7.343076E+11
1940.00	7.328455E+11
1950.00	7.308818E+11
1960.00	7.294162E+11
1970.00	7.279434E+11
1980.00	7.259690E+11
1990.00	7.244743E+11
2000.00	7.224740E+11
2010.00	7.209365E+11
2020.00	7.188838E+11
2030.00	7.172690E+11
2040.00	7.151170E+11
2050.00	7.133593E+11
2060.00	7.110132E+11
2070.00	7.089659E+11
2080.00	7.061852E+11
2090.00	7.034050E+11
2100.00	6.992070E+11
2110.00	6.925503E+11
2120.00	6.424066E+11
2130.00	6.389893E+11
2140.00	6.507260E+11
2150.00	6.536534E+11
2160.00	6.548095E+11
2170.00	6.542597E+11
2180.00	6.528629E+11
2190.00	6.484438E+11
2200.00	6.331356E+11
2210.00	6.351469E+11
2220.00	6.402884E+11
2230.00	6.426024E+11
2240.00	6.442625E+11
2250.00	6.449654E+11
2260.00	6.453237E+11
2270.00	6.454459E+11
2280.00	6.457966E+11
2290.00	6.456130E+11
2300.00	6.453234E+11
2310.00	6.449433E+11
2320.00	6.448940E+11
2330.00	6.443932E+11
2340.00	6.438466E+11
2350.00	6.432609E+11
2360.00	6.426416E+11
2370.00	6.423832E+11
2380.00	6.417017E+11
2390.00	6.409999E+11
2400.00	6.402796E+11
2410.00	6.395427E+11
2420.00	6.387912E+11
2430.00	6.380271E+11
2440.00	6.372460E+11
2450.00	6.368338E+11
2460.00	6.360325E+11
2470.00	6.352225E+11
2480.00	6.344040E+11
2490.00	6.335742E+11
2500.00	6.327341E+11
2510.00	6.318863E+11
2520.00	6.310304E+11
2530.00	6.301658E+11
2540.00	6.292880E+11
2550.00	6.283953E+11
2560.00	6.274883E+11
2570.00	6.265646E+11
2580.00	6.256216E+11
2590.00	6.246342E+11
2600.00	6.235997E+11
2610.00	6.224944E+11
2620.00	6.212797E+11
2630.00	6.197855E+11
2640.00	6.169892E+11
2650.00	6.102968E+11
2660.00	6.118687E+11
2670.00	6.119768E+11
2680.00	6.117742E+11
2690.00	6.114402E+11
2700.00	6.110224E+11
2710.00	6.105391E+11
2720.00	6.100162E+11
2730.00	6.091303E+11
2740.00	6.085665E+11
2750.00	6.079804E+11
2760.00	6.073847E+11
2770.00	6.067800E+11
2780.00	6.058298E+11
2790.00	6.051986E+11
2800.00	6.045636E+11
2810.00	6.039259E+11
2820.00	6.032841E+11
2830.00	6.023091E+11
2840.00	6.016634E+11
2850.00	6.010166E+11
2860.00	6.003656E+11
2870.00	5.993912E+11
2880.00	5.987445E+11
2890.00	5.980933E+11
2900.00	5.971194E+11
2910.00	5.964682E+11
2920.00	5.958135E+11
2930.00	5.948368E+11
2940.00	5.941783E+11
2950.00	5.935146E+11
2960.00	5.925274E+11
2970.00	5.918512E+11
2980.00	5.911645E+11
2990.00	5.901360E+11
3000.00	5.893966E+11
3010.00	5.886207E+11
3020.00	5.872568E+11
3030.00	5.845386E+11
3040.00	5.840982E+11
3050.00	5.838090E+11
3060.00	5.831339E+11
3070.00	5.827020E+11
3080.00	5.822394E+11
3090.00	5.814634E+11
3100.00	5.809752E+11
3110.00	5.801776E+11
3120.00	5.796782E+11
3130.00	5.788719E+11
3140.00	5.783623E+11
3150.00	5.775551E+11
3160.00	5.770388E+11
3170.00	5.762256E+11
3180.00	5.757062E+11
3190.00	5.748861E+11
3200.00	5.743607E+11
3210.00	5.735413E+11
3220.00	5.730100E+11
3230.00	5.721883E+11
3240.00	5.713597E+11
3250.00	5.708150E+11
3260.00	5.699757E+11
3270.00	5.693907E+11
3280.00	5.684898E+11
3290.00	5.674597E+11
3300.00	5.659910E+11
3310.00	5.650816E+11
3320.00	5.647292E+11
3330.00	5.640740E+11
3340.00	5.633834E+11
3350.00	5.629623E+11
3360.00	5.622568E+11
3370.00	5.615424E+11
3380.00	5.611071E+11
3390.00	5.603911E+11
3400.00	5.596759E+11
3410.00	5.592378E+11
3420.00	5.585231E+11
3430.00	5.578119E+11
3440.00	5.573747E+11
3450.00	5.566674E+11
3460.00	5.559628E+11
3470.00	5.552590E+11
3480.00	5.548283E+11
3490.00	5.541289E+11
3500.00	5.534331E+11
3510.00	5.527383E+11
3520.00	5.523135E+11
3530.00	5.516243E+11
3540.00	5.509375E+11
3550.00	5.502548E+11
3560.00	5.498369E+11
3570.00	5.491581E+11
3580.00	5.484813E+11
3590.00	5.478079E+11
3600.00	5.471375E+11
3610.00	5.464699E+11
3620.00	5.460659E+11
3630.00	5.454029E+11
3640.00	5.447440E+11
3650.00	5.440863E+11
3660.00	5.434326E+11
3670.00	5.427820E+11
3680.00	5.423903E+11
3690.00	5.417447E+11
3700.00	5.411017E+11
3710.00	5.404616E+11
3720.00	5.398242E+11
3730.00	5.391904E+11
3740.00	5.385588E+11
3750.00	5.379312E+11
3760.00	5.373055E+11
3770.00	5.366836E+11
3780.00	5.360632E+11
3790.00	5.356951E+11
3800.00	5.350801E+11
3810.00	5.344685E+11
3820.00	5.338594E+11
3830.00	5.332532E+11
3840.00	5.326494E+11
3850.00	5.320488E+11
3860.00	5.314515E+11
3870.00	5.308565E+11
3880.00	5.302641E+11
3890.00	5.296745E+11
3900.00	5.290879E+11
3910.00	5.285033E+11
3920.00	5.279216E+11
3930.00	5.273433E+11
3940.00	5.267686E+11
3950.00	5.261971E+11
3960.00	5.256291E+11
3970.00	5.250625E+11
3980.00	5.242617E+11
3990.00	5.237007E+11
4000.00	5.231428E+11
4010.00	5.225869E+11
4020.00	5.220342E+11
4030.00	5.214832E+11
4040.00	5.209355E+11
4050.00	5.203896E+11
4060.00	5.198468E+11
4070.00	5.193059E+11
4080.00	5.187680E+11
4090.00	5.180012E+11
4100.00	5.174686E+11
4110.00	5.169380E+11
4120.00	5.164102E+11
4130.00	5.158840E+11
4140.00	5.153603E+11
4150.00	5.148392E+11
4160.00	5.140936E+11
4170.00	5.135780E+11
4180.00	5.130647E+11
4190.00	5.125533E+11
4200.00	5.120439E+11
4210.00	5.115371E+11
4220.00	5.108088E+11
4230.00	5.103230E+11
4240.00	5.098770E+11
4250.00	5.094249E+11
4260.00	5.087125E+11
4270.00	5.082255E+11
4280.00	5.077404E+11
4290.00	5.072581E+11
4300.00	5.067778E+11
4310.00	5.060806E+11
4320.00	5.056044E+11
4330.00	5.051304E+11
4340.00	5.046582E+11
4350.00	5.039705E+11
4360.00	5.035029E+11
4370.00	5.030372E+11
4380.00	5.023575E+11
4390.00	5.018960E+11
4400.00	5.014399E+11
4410.00	5.008029E+11
4420.00	5.003833E+11
4430.00	4.999363E+11
4440.00	4.994879E+11
4450.00	4.988284E+11
4460.00	4.983845E+11
4470.00	4.979422E+11
4480.00	4.972895E+11
4490.00	4.968512E+11
4500.00	4.964147E+11
4510.00	4.957704E+11
4520.00	4.953371E+11
4530.00	4.946969E+11
4540.00	4.942677E+11
4550.00	4.938405E+11
4560.00	4.932071E+11
4570.00	4.927837E+11
4580.00	4.921552E+11
4590.00	4.917354E+11
4600.00	4.913179E+11
4610.00	4.906952E+11
4620.00	4.902805E+11
4630.00	4.896629E+11
4640.00	4.892527E+11
4650.00	4.888441E+11
4660.00	4.882333E+11
4670.00	4.878287E+11
4680.00	4.872215E+11
4690.00	4.868197E+11
4700.00	4.862172E+11
4710.00	4.858187E+11
4720.00	4.852211E+11
4730.00	4.848266E+11
4740.00	4.842340E+11
4750.00	4.838424E+11
4760.00	4.832532E+11
4770.00	4.828656E+11
4780.00	4.822811E+11
4790.00	4.818974E+11
4800.00	4.813162E+11
4810.00	4.809353E+11
4820.00	4.803584E+11
4830.00	4.799806E+11
4840.00	4.794081E+11
4850.00	4.790334E+11
4860.00	4.784651E+11
4870.00	4.780942E+11
4880.00	4.775304E+11
4890.00	4.771626E+11
4900.00	4.766020E+11
4910.00	4.762373E+11
4920.00	4.756804E+11
4930.00	4.751260E+11
4940.00	4.747662E+11
4950.00	4.742162E+11
4960.00	4.738600E+11
4970.00	4.733128E+11
4980.00	4.727683E+11
4990.00	4.724163E+11
5000.00	4.718759E+11
5010.00	4.715274E+11
5020.00	4.709897E+11
5030.00	4.704546E+11
5040.00	4.701102E+11
5050.00	4.695791E+11
5060.00	4.690502E+11
5070.00	4.687104E+11
5080.00	4.681850E+11
5090.00	4.678479E+11
5100.00	4.673251E+11
5110.00	4.668047E+11
5120.00	4.664721E+11
5130.00	4.659556E+11
5140.00	4.654409E+11
5150.00	4.651127E+11
5160.00	4.646017E+11
5170.00	4.640920E+11
5180.00	4.635845E+11
5190.00	4.632625E+11
5200.00	4.627587E+11
5210.00	4.622571E+11
5220.00	4.619388E+11
5230.00	4.614396E+11
5240.00	4.609425E+11
5250.00	4.604467E+11
5260.00	4.601340E+11
5270.00	4.596419E+11
5280.00	4.591519E+11
5290.00	4.586640E+11
5300.00	4.583748E+11
5310.00	4.579092E+11
5320.00	4.574406E+11
5330.00	4.569613E+11
5340.00	4.566623E+11
5350.00	4.561860E+11
5360.00	4.557115E+11
5370.00	4.552389E+11
5380.00	4.549445E+11
5390.00	4.544746E+11
5400.00	4.540065E+11
5410.00	4.535396E+11
5420.00	4.530747E+11
5430.00	4.527866E+11
5440.00	4.523243E+11
5450.00	4.518638E+11
5460.00	4.514051E+11
5470.00	4.509483E+11
5480.00	4.504932E+11
5490.00	4.502126E+11
5500.00	4.497602E+11
5510.00	4.493091E+11
5520.00	4.488587E+11
5530.00	4.484103E+11
5540.00	4.479639E+11
5550.00	4.476911E+11
5560.00	4.472483E+11
5570.00	4.468058E+11
5580.00	4.463649E+11
5590.00	4.459258E+11
5600.00	4.454875E+11
5610.00	4.450511E+11
5620.00	4.446164E+11
5630.00	4.441832E+11
5640.00	4.439208E+11
5650.00	4.434904E+11
5660.00	4.430613E+11
5670.00	4.426338E+11
5680.00	4.422075E+11
5690.00	4.417826E+11
5700.00	4.413594E+11
5710.00	4.409372E+11
5720.00	4.405164E+11
5730.00	4.400974E+11
5740.00	4.396790E+11
5750.00	4.392624E+11
5760.00	4.388473E+11
5770.00	4.384337E+11
5780.00	4.380218E+11
5790.00	4.376111E+11
5800.00	4.373660E+11
5810.00	4.369576E+11
5820.00	4.365506E+11
5830.00	4.361447E+11
5840.00	4.357403E+11
5850.00	4.353373E+11
5860.00	4.349357E+11
5870.00	4.345358E+11
5880.00	4.341369E+11
5890.00	4.337392E+11
5900.00	4.333429E+11
5910.00	4.329481E+11
5920.00	4.325547E+11
5930.00	4.321628E+11
5940.00	4.317719E+11
5950.00	4.312217E+11
5960.00	4.308337E+11
5970.00	4.304470E+11
5980.00	4.300617E+11
5990.00	4.296779E+11
6000.00	4.292946E+11
6010.00	4.289121E+11
6020.00	4.285312E+11
6030.00	4.281553E+11
6040.00	4.277825E+11
6050.00	4.274112E+11
6060.00	4.270378E+11
6070.00	4.266642E+11
6080.00	4.262920E+11
6090.00	4.259205E+11
6100.00	4.253936E+11
6110.00	4.250250E+11
6120.00	4.246572E+11
6130.00	4.242904E+11
6140.00	4.239250E+11
6150.00	4.235608E+11
6160.00	4.231979E+11
6170.00	4.228363E+11
6180.00	4.224756E+11
6190.00	4.219615E+11
6200.00	4.216033E+11
6210.00	4.212461E+11
6220.00	4.208897E+11
6230.00	4.205346E+11
6240.00	4.201808E+11
6250.00	4.198282E+11
6260.00	4.193243E+11
6270.00	4.189744E+11
6280.00	4.186252E+11
6290.00	4.182773E+11
6300.00	4.179305E+11
6310.00	4.175844E+11
6320.00	4.170883E+11
6330.00	4.167450E+11
6340.00	4.164023E+11
6350.00	4.160607E+11
6360.00	4.157204E+11
6370.00	4.152308E+11
6380.00	4.148925E+11
6390.00	4.145555E+11
6400.00	4.142193E+11
6410.00	4.138841E+11
6420.00	4.134012E+11
6430.00	4.130683E+11
6440.00	4.127363E+11
6450.00	4.124054E+11
6460.00	4.120758E+11
6470.00	4.115988E+11
6480.00	4.112711E+11
6490.00	4.109445E+11
6500.00	4.106185E+11
6510.00	4.101466E+11
6520.00	4.098231E+11
6530.00	4.095003E+11
6540.00	4.091785E+11
6550.00	4.087119E+11
6560.00	4.083924E+11
6570.00	4.080735E+11
6580.00	4.076104E+11
6590.00	4.072942E+11
6600.00	4.069803E+11
6610.00	4.066677E+11
6620.00	4.062116E+11
6630.00	4.058994E+11
6640.00	4.055878E+11
6650.00	4.051334E+11
6660.00	4.048239E+11
6670.00	4.045152E+11
6680.00	4.040643E+11
6690.00	4.037579E+11
6700.00	4.034520E+11
6710.00	4.030045E+11
6720.00	4.027009E+11
6730.00	4.023980E+11
6740.00	4.019540E+11
6750.00	4.016532E+11
6760.00	4.013531E+11
6770.00	4.009124E+11
6780.00	4.006143E+11
6790.00	4.003171E+11
6800.00	3.998796E+11
6810.00	3.995842E+11
6820.00	3.992897E+11
6830.00	3.988557E+11
6840.00	3.985629E+11
6850.00	3.982710E+11
6860.00	3.978404E+11
6870.00	3.975501E+11
6880.00	3.971218E+11
6890.00	3.968337E+11
6900.00	3.965461E+11
6910.00	3.961209E+11
6920.00	3.958353E+11
6930.00	3.954123E+11
6940.00	3.951283E+11
6950.00	3.948453E+11
6960.00	3.944256E+11
6970.00	3.941441E+11
6980.00	3.937263E+11
6990.00	3.934469E+11
7000.00	3.931681E+11
7010.00	3.927533E+11
7020.00	3.924763E+11
7030.00	3.920639E+11
7040.00	3.917884E+11
7050.00	3.913779E+11
7060.00	3.911043E+11
7070.00	3.906960E+11
7080.00	3.904239E+11
7090.00	3.900175E+11
7100.00	3.897474E+11
7110.00	3.894776E+11
7120.00	3.890741E+11
7130.00	3.888062E+11
7140.00	3.884049E+11
7150.00	3.881384E+11
7160.00	3.877391E+11
7170.00	3.874746E+11
7180.00	3.870771E+11
7190.00	3.868139E+11
7200.00	3.864185E+11
7210.00	3.861571E+11
7220.00	3.857635E+11
7230.00	3.855036E+11
7240.00	3.851121E+11
7250.00	3.848538E+11
7260.00	3.844640E+11
7270.00	3.842072E+11
7280.00	3.838196E+11
7290.00	3.835641E+11
7300.00	3.831783E+11
7310.00	3.829247E+11
7320.00	3.825407E+11
7330.00	3.821577E+11
7340.00	3.819063E+11
7350.00	3.815252E+11
7360.00	3.812752E+11
7370.00	3.808959E+11
7380.00	3.806475E+11
7390.00	3.802702E+11
7400.00	3.800230E+11
7410.00	3.796473E+11
7420.00	3.792727E+11
7430.00	3.790281E+11
7440.00	3.786551E+11
7450.00	3.784119E+11
7460.00	3.780410E+11
7470.00	3.777992E+11
7480.00	3.774297E+11
7490.00	3.770613E+11
7500.00	3.768218E+11
7510.00	3.764550E+11
7520.00	3.762168E+11
7530.00	3.758520E+11
7540.00	3.754882E+11
7550.00	3.752519E+11
7560.00	3.748896E+11
7570.00	3.746550E+11
7580.00	3.742944E+11
7590.00	3.739346E+11
7600.00	3.737020E+11
7610.00	3.733442E+11
7620.00	3.729872E+11
7630.00	3.727566E+11
7640.00	3.724013E+11
7650.00	3.720470E+11
7660.00	3.718185E+11
7670.00	3.714655E+11
7680.00	3.712384E+11
7690.00	3.708873E+11
7700.00	3.705368E+11
7710.00	3.703117E+11
7720.00	3.699630E+11
7730.00	3.696152E+11
7740.00	3.693920E+11
7750.00	3.690457E+11
7760.00	3.687003E+11
7770.00	3.684794E+11
7780.00	3.681354E+11
7790.00	3.677924E+11
7800.00	3.674503E+11
7810.00	3.672320E+11
7820.00	3.668913E+11
7830.00	3.665516E+11
7840.00	3.663351E+11
7850.00	3.659969E+11
7860.00	3.656595E+11
7870.00	3.654448E+11
7880.00	3.651091E+11
7890.00	3.647741E+11
7900.00	3.644398E+11
7910.00	3.642278E+11
7920.00	3.638952E+11
7930.00	3.635633E+11
7940.00	3.633531E+11
7950.00	3.630227E+11
7960.00	3.626932E+11
7970.00	3.623642E+11
7980.00	3.621564E+11
7990.00	3.618291E+11
8000.00	3.615026E+11
8010.00	3.611768E+11
8020.00	3.609714E+11
8030.00	3.606472E+11
8040.00	3.603238E+11
8050.00	3.600010E+11
8060.00	3.597980E+11
8070.00	3.594767E+11
8080.00	3.591562E+11
8090.00	3.588364E+11
8100.00	3.585172E+11
8110.00	3.583174E+11
8120.00	3.579999E+11
8130.00	3.576829E+11
8140.00	3.573667E+11
8150.00	3.570514E+11
8160.00	3.568545E+11
8170.00	3.565405E+11
8180.00	3.562271E+11
8190.00	3.559146E+11
8200.00	3.556028E+11
8210.00	3.554087E+11
8220.00	3.550982E+11
8230.00	3.547885E+11
8240.00	3.544797E+11
8250.00	3.541715E+11
8260.00	3.539800E+11
8270.00	3.536731E+11
8280.00	3.533669E+11
8290.00	3.530615E+11
8300.00	3.527567E+11
8310.00	3.524526E+11
8320.00	3.522647E+11
8330.00	3.519622E+11
8340.00	3.516599E+11
8350.00	3.513584E+11
8360.00	3.510579E+11
8370.00	3.507579E+11
8380.00	3.504586E+11
8390.00	3.502743E+11
8400.00	3.499763E+11
8410.00	3.496791E+11
8420.00	3.493824E+11
8430.00	3.490864E+11
8440.00	3.487911E+11
8450.00	3.484967E+11
8460.00	3.482029E+11
8470.00	3.480228E+11
8480.00	3.477302E+11
8490.00	3.474383E+11
8500.00	3.471470E+11
8510.00	3.468562E+11
8520.00	3.465662E+11
8530.00	3.462769E+11
8540.00	3.459883E+11
8550.00	3.456998E+11
8560.00	3.454121E+11
8570.00	3.452371E+11
8580.00	3.449507E+11
8590.00	3.446650E+11
8600.00	3.443800E+11
8610.00	3.440957E+11
8620.00	3.438121E+11
8630.00	3.435294E+11
8640.00	3.432472E+11
8650.00	3.429658E+11
8660.00	3.426851E+11
8670.00	3.424051E+11
8680.00	3.421258E+11
8690.00	3.418473E+11
8700.00	3.415693E+11
8710.00	3.412921E+11
8720.00	3.411258E+11
8730.00	3.408498E+11
8740.00	3.405746E+11
8750.00	3.403000E+11
8760.00	3.400261E+11
8770.00	3.397529E+11
8780.00	3.394804E+11
8790.00	3.392086E+11
8800.00	3.389374E+11
8810.00	3.386668E+11
8820.00	3.383971E+11
8830.00	3.381279E+11
8840.00	3.378594E+11
8850.00	3.375915E+11
8860.00	3.373244E+11
8870.00	3.370578E+11
8880.00	3.367921E+11
8890.00	3.365268E+11
8900.00	3.362623E+11
8910.00	3.359984E+11
8920.00	3.357352E+11
8930.00	3.354726E+11
8940.00	3.352106E+11
8950.00	3.349494E+11
8960.00	3.346887E+11
8970.00	3.344287E+11
8980.00	3.341693E+11
8990.00	3.339105E+11
9000.00	3.336524E+11
9010.00	3.333949E+11
9020.00	3.331381E+11
9030.00	3.328819E+11
9040.00	3.326244E+11
9050.00	3.323676E+11
9060.00	3.321112E+11
9070.00	3.317495E+11
9080.00	3.314945E+11
9090.00	3.312402E+11
9100.00	3.309864E+11
9110.00	3.307333E+11
9120.00	3.304807E+11
9130.00	3.302289E+11
9140.00	3.299775E+11
9150.00	3.297269E+11
9160.00	3.294768E+11
9170.00	3.292273E+11
9180.00	3.289784E+11
9190.00	3.287301E+11
9200.00	3.284823E+11
9210.00	3.282353E+11
9220.00	3.279888E+11
9230.00	3.276387E+11
9240.00	3.273934E+11
9250.00	3.271487E+11
9260.00	3.269047E+11
9270.00	3.266612E+11
9280.00	3.264183E+11
9290.00	3.261760E+11
9300.00	3.259343E+11
9310.00	3.256930E+11
9320.00	3.254524E+11
9330.00	3.251094E+11
9340.00	3.248700E+11
9350.00	3.246313E+11
9360.00	3.243931E+11
9370.00	3.241554E+11
9380.00	3.239183E+11
9390.00	3.236817E+11
9400.00	3.234458E+11
9410.00	3.231082E+11
9420.00	3.228734E+11
9430.00	3.226392E+11
9440.00	3.224056E+11
9450.00	3.221725E+11
9460.00	3.219399E+11
9470.00	3.217079E+11
9480.00	3.213750E+11
9490.00	3.211443E+11
9500.00	3.209140E+11
9510.00	3.206843E+11
9520.00	3.204551E+11
9530.00	3.202264E+11
9540.00	3.199983E+11
9550.00	3.196700E+11
9560.00	3.194431E+11
9570.00	3.192167E+11
9580.00	3.189908E+11
9590.00	3.187655E+11
9600.00	3.185406E+11
9610.00	3.182162E+11
9620.00	3.179925E+11
9630.00	3.177694E+11
