#Energy[eV]    Flux (1.1X0.26)mrad² [ph/s/100mA] 
200.00	2.296550E+12
210.00	2.260976E+12
220.00	2.228222E+12
230.00	2.196686E+12
240.00	2.167138E+12
250.00	2.139286E+12
260.00	2.112433E+12
270.00	2.087143E+12
280.00	2.063073E+12
290.00	2.039837E+12
300.00	2.017988E+12
310.00	1.996744E+12
320.00	1.976683E+12
330.00	1.957106E+12
340.00	1.938503E+12
350.00	1.920343E+12
360.00	1.902944E+12
370.00	1.886265E+12
380.00	1.870121E+12
390.00	1.854663E+12
400.00	1.839402E+12
410.00	1.824678E+12
420.00	1.810736E+12
430.00	1.796858E+12
440.00	1.783688E+12
450.00	1.770715E+12
460.00	1.758202E+12
470.00	1.745871E+12
480.00	1.734109E+12
490.00	1.722512E+12
500.00	1.711237E+12
510.00	1.700269E+12
520.00	1.689461E+12
530.00	1.679065E+12
540.00	1.668921E+12
550.00	1.658981E+12
560.00	1.649142E+12
570.00	1.639688E+12
580.00	1.630431E+12
590.00	1.621300E+12
600.00	1.612430E+12
610.00	1.603723E+12
620.00	1.595962E+12
630.00	1.586410E+12
640.00	1.578642E+12
650.00	1.571139E+12
660.00	1.562407E+12
670.00	1.555419E+12
680.00	1.547116E+12
690.00	1.540497E+12
700.00	1.532691E+12
710.00	1.525128E+12
720.00	1.519113E+12
730.00	1.511884E+12
740.00	1.504870E+12
750.00	1.498062E+12
760.00	1.491453E+12
770.00	1.484988E+12
780.00	1.478660E+12
790.00	1.472509E+12
800.00	1.466528E+12
810.00	1.460711E+12
820.00	1.453836E+12
830.00	1.448260E+12
840.00	1.442830E+12
850.00	1.436386E+12
860.00	1.431248E+12
870.00	1.426242E+12
880.00	1.420202E+12
890.00	1.415382E+12
900.00	1.409589E+12
910.00	1.403934E+12
920.00	1.399483E+12
930.00	1.394082E+12
940.00	1.388768E+12
950.00	1.383547E+12
960.00	1.379468E+12
970.00	1.374469E+12
980.00	1.369582E+12
990.00	1.364803E+12
1000.00	1.360126E+12
1010.00	1.355533E+12
1020.00	1.351038E+12
1030.00	1.346641E+12
1040.00	1.342338E+12
1050.00	1.338126E+12
1060.00	1.333074E+12
1070.00	1.329030E+12
1080.00	1.325015E+12
1090.00	1.321082E+12
1100.00	1.316333E+12
1110.00	1.312564E+12
1120.00	1.308869E+12
1130.00	1.304377E+12
1140.00	1.300835E+12
1150.00	1.296452E+12
1160.00	1.292991E+12
1170.00	1.288753E+12
1180.00	1.285429E+12
1190.00	1.281338E+12
1200.00	1.278143E+12
1210.00	1.274192E+12
1220.00	1.270313E+12
1230.00	1.267249E+12
1240.00	1.263444E+12
1250.00	1.259705E+12
1260.00	1.256030E+12
1270.00	1.252418E+12
1280.00	1.249638E+12
1290.00	1.246141E+12
1300.00	1.242703E+12
1310.00	1.239295E+12
1320.00	1.235920E+12
1330.00	1.232600E+12
1340.00	1.229333E+12
1350.00	1.226119E+12
1360.00	1.222955E+12
1370.00	1.219842E+12
1380.00	1.216779E+12
1390.00	1.213055E+12
1400.00	1.210064E+12
1410.00	1.207097E+12
1420.00	1.204176E+12
1430.00	1.201299E+12
1440.00	1.197779E+12
1450.00	1.194993E+12
1460.00	1.192247E+12
1470.00	1.188871E+12
1480.00	1.186211E+12
1490.00	1.183589E+12
1500.00	1.180299E+12
1510.00	1.177704E+12
1520.00	1.174496E+12
1530.00	1.171979E+12
1540.00	1.168856E+12
1550.00	1.166412E+12
1560.00	1.163369E+12
1570.00	1.160996E+12
1580.00	1.158031E+12
1590.00	1.155726E+12
1600.00	1.152787E+12
1610.00	1.149860E+12
1620.00	1.147579E+12
1630.00	1.144722E+12
1640.00	1.141901E+12
1650.00	1.139116E+12
1660.00	1.136958E+12
1670.00	1.134237E+12
1680.00	1.131551E+12
1690.00	1.128897E+12
1700.00	1.126277E+12
1710.00	1.123538E+12
1720.00	1.121326E+12
1730.00	1.118561E+12
1740.00	1.115819E+12
1750.00	1.113099E+12
1760.00	1.110400E+12
1770.00	1.107722E+12
1780.00	1.105064E+12
1790.00	1.102424E+12
1800.00	1.099803E+12
1810.00	1.096492E+12
1820.00	1.092887E+12
1830.00	1.086630E+12
1840.00	9.923011E+11
1850.00	8.861390E+11
1860.00	9.017296E+11
1870.00	9.153219E+11
1880.00	9.233072E+11
1890.00	9.251992E+11
1900.00	9.274077E+11
1910.00	9.294917E+11
1920.00	9.314563E+11
1930.00	9.328634E+11
1940.00	9.346072E+11
1950.00	9.356145E+11
1960.00	9.350114E+11
1970.00	9.348528E+11
1980.00	9.342593E+11
1990.00	9.341068E+11
2000.00	9.339574E+11
2010.00	9.333767E+11
2020.00	9.332326E+11
2030.00	9.326604E+11
2040.00	9.325211E+11
2050.00	9.319572E+11
2060.00	9.318225E+11
2070.00	9.312657E+11
2080.00	9.311362E+11
2090.00	9.300195E+11
2100.00	9.288769E+11
2110.00	9.281724E+11
2120.00	9.270658E+11
2130.00	9.263934E+11
2140.00	9.253225E+11
2150.00	9.242702E+11
2160.00	9.236459E+11
2170.00	9.226263E+11
2180.00	9.216243E+11
2190.00	9.206397E+11
2200.00	9.200754E+11
2210.00	9.191224E+11
2220.00	9.181858E+11
2230.00	9.170812E+11
2240.00	9.158561E+11
2250.00	9.150460E+11
2260.00	9.138569E+11
2270.00	9.126865E+11
2280.00	9.115339E+11
2290.00	9.103991E+11
2300.00	9.092820E+11
2310.00	9.081827E+11
2320.00	9.071001E+11
2330.00	9.060352E+11
2340.00	9.049860E+11
2350.00	9.039545E+11
2360.00	9.029386E+11
2370.00	9.019394E+11
2380.00	9.009032E+11
2390.00	8.996941E+11
2400.00	8.985022E+11
2410.00	8.973259E+11
2420.00	8.961655E+11
2430.00	8.950210E+11
2440.00	8.938918E+11
2450.00	8.924102E+11
2460.00	8.913130E+11
2470.00	8.902308E+11
2480.00	8.891636E+11
2490.00	8.881110E+11
2500.00	8.870730E+11
2510.00	8.856895E+11
2520.00	8.846815E+11
2530.00	8.836875E+11
2540.00	8.827075E+11
2550.00	8.812635E+11
2560.00	8.801614E+11
2570.00	8.790728E+11
2580.00	8.776465E+11
2590.00	8.765858E+11
2600.00	8.755380E+11
2610.00	8.741560E+11
2620.00	8.731352E+11
2630.00	8.717824E+11
2640.00	8.707880E+11
2650.00	8.698061E+11
2660.00	8.684954E+11
2670.00	8.675390E+11
2680.00	8.662561E+11
2690.00	8.653250E+11
2700.00	8.640693E+11
2710.00	8.631630E+11
2720.00	8.619036E+11
2730.00	8.609114E+11
2740.00	8.595987E+11
2750.00	8.586299E+11
2760.00	8.573426E+11
2770.00	8.560684E+11
2780.00	8.551345E+11
2790.00	8.538851E+11
2800.00	8.529737E+11
2810.00	8.517486E+11
2820.00	8.505360E+11
2830.00	8.496578E+11
2840.00	8.484690E+11
2850.00	8.472924E+11
2860.00	8.464466E+11
2870.00	8.452930E+11
2880.00	8.441512E+11
2890.00	8.430213E+11
2900.00	8.422178E+11
2910.00	8.410696E+11
2920.00	8.398966E+11
2930.00	8.387348E+11
2940.00	8.378949E+11
2950.00	8.367544E+11
2960.00	8.356247E+11
2970.00	8.345060E+11
2980.00	8.333981E+11
2990.00	8.323008E+11
3000.00	8.315188E+11
3010.00	8.304417E+11
3020.00	8.293750E+11
3030.00	8.283186E+11
3040.00	8.272724E+11
3050.00	8.262365E+11
3060.00	8.252105E+11
3070.00	8.241946E+11
3080.00	8.231885E+11
3090.00	8.221923E+11
3100.00	8.212059E+11
3110.00	8.201939E+11
3120.00	8.191539E+11
3130.00	8.181234E+11
3140.00	8.171020E+11
3150.00	8.160900E+11
3160.00	8.150870E+11
3170.00	8.140931E+11
3180.00	8.131081E+11
3190.00	8.121322E+11
3200.00	8.111650E+11
3210.00	8.102066E+11
3220.00	8.089719E+11
3230.00	8.080317E+11
3240.00	8.071001E+11
3250.00	8.061771E+11
3260.00	8.052625E+11
3270.00	8.043562E+11
3280.00	8.031780E+11
3290.00	8.022892E+11
3300.00	8.014085E+11
3310.00	8.005359E+11
3320.00	7.993903E+11
3330.00	7.984655E+11
3340.00	7.975483E+11
3350.00	7.966387E+11
3360.00	7.954629E+11
3370.00	7.945693E+11
3380.00	7.936833E+11
3390.00	7.928046E+11
3400.00	7.916626E+11
3410.00	7.907994E+11
3420.00	7.896742E+11
3430.00	7.888263E+11
3440.00	7.879857E+11
3450.00	7.868849E+11
3460.00	7.860591E+11
3470.00	7.852403E+11
3480.00	7.841636E+11
3490.00	7.833594E+11
3500.00	7.822986E+11
3510.00	7.815088E+11
3520.00	7.804637E+11
3530.00	7.796882E+11
3540.00	7.786586E+11
3550.00	7.778913E+11
3560.00	7.770998E+11
3570.00	7.760560E+11
3580.00	7.750200E+11
3590.00	7.742486E+11
3600.00	7.732269E+11
3610.00	7.724686E+11
3620.00	7.714612E+11
3630.00	7.707156E+11
3640.00	7.697222E+11
3650.00	7.689893E+11
3660.00	7.680097E+11
3670.00	7.670373E+11
3680.00	7.663232E+11
3690.00	7.653645E+11
3700.00	7.646627E+11
3710.00	7.637172E+11
3720.00	7.627787E+11
3730.00	7.620951E+11
3740.00	7.611697E+11
3750.00	7.602511E+11
3760.00	7.593393E+11
3770.00	7.586797E+11
3780.00	7.577806E+11
3790.00	7.568881E+11
3800.00	7.562081E+11
3810.00	7.552714E+11
3820.00	7.543412E+11
3830.00	7.534174E+11
3840.00	7.527414E+11
3850.00	7.518296E+11
3860.00	7.509242E+11
3870.00	7.500250E+11
3880.00	7.491320E+11
3890.00	7.484834E+11
3900.00	7.476020E+11
3910.00	7.467268E+11
3920.00	7.458575E+11
3930.00	7.449943E+11
3940.00	7.441370E+11
3950.00	7.432857E+11
3960.00	7.426745E+11
3970.00	7.418343E+11
3980.00	7.409999E+11
3990.00	7.401713E+11
4000.00	7.393484E+11
4010.00	7.385312E+11
4020.00	7.377198E+11
4030.00	7.369139E+11
4040.00	7.361137E+11
4050.00	7.353190E+11
4060.00	7.345059E+11
4070.00	7.336738E+11
4080.00	7.328470E+11
4090.00	7.320256E+11
4100.00	7.312093E+11
4110.00	7.303982E+11
4120.00	7.295923E+11
4130.00	7.287916E+11
4140.00	7.279959E+11
4150.00	7.272054E+11
4160.00	7.264200E+11
4170.00	7.256395E+11
4180.00	7.248641E+11
4190.00	7.240936E+11
4200.00	7.231065E+11
4210.00	7.223463E+11
4220.00	7.215911E+11
4230.00	7.208407E+11
4240.00	7.200951E+11
4250.00	7.193543E+11
4260.00	7.186183E+11
4270.00	7.176689E+11
4280.00	7.169428E+11
4290.00	7.162214E+11
4300.00	7.155046E+11
4310.00	7.147925E+11
4320.00	7.140849E+11
4330.00	7.131668E+11
4340.00	7.124474E+11
4350.00	7.117127E+11
4360.00	7.109821E+11
4370.00	7.100427E+11
4380.00	7.093213E+11
4390.00	7.086043E+11
4400.00	7.078914E+11
4410.00	7.069713E+11
4420.00	7.062674E+11
4430.00	7.055676E+11
4440.00	7.046620E+11
4450.00	7.039710E+11
4460.00	7.032840E+11
4470.00	7.023925E+11
4480.00	7.017141E+11
4490.00	7.010399E+11
4500.00	7.001622E+11
4510.00	6.994964E+11
4520.00	6.988346E+11
4530.00	6.979707E+11
4540.00	6.973172E+11
4550.00	6.964623E+11
4560.00	6.958170E+11
4570.00	6.949712E+11
4580.00	6.943341E+11
4590.00	6.937007E+11
4600.00	6.928681E+11
4610.00	6.922428E+11
4620.00	6.914190E+11
4630.00	6.908016E+11
4640.00	6.899648E+11
4650.00	6.893194E+11
4660.00	6.884770E+11
4670.00	6.878390E+11
4680.00	6.870049E+11
4690.00	6.863744E+11
4700.00	6.855484E+11
4710.00	6.849252E+11
4720.00	6.841074E+11
4730.00	6.834915E+11
4740.00	6.826817E+11
4750.00	6.820729E+11
4760.00	6.812711E+11
4770.00	6.804735E+11
4780.00	6.798755E+11
4790.00	6.790856E+11
4800.00	6.784946E+11
4810.00	6.777125E+11
4820.00	6.769344E+11
4830.00	6.763540E+11
4840.00	6.755835E+11
4850.00	6.748170E+11
4860.00	6.742470E+11
4870.00	6.734880E+11
4880.00	6.727329E+11
4890.00	6.721730E+11
4900.00	6.714253E+11
4910.00	6.706814E+11
4920.00	6.701316E+11
4930.00	6.693951E+11
4940.00	6.686623E+11
4950.00	6.681224E+11
4960.00	6.673771E+11
4970.00	6.666242E+11
4980.00	6.658749E+11
4990.00	6.653167E+11
5000.00	6.645742E+11
5010.00	6.638352E+11
5020.00	6.630998E+11
5030.00	6.625541E+11
5040.00	6.618253E+11
5050.00	6.611001E+11
5060.00	6.603783E+11
5070.00	6.596601E+11
5080.00	6.591295E+11
5090.00	6.584177E+11
5100.00	6.577093E+11
5110.00	6.570043E+11
5120.00	6.563025E+11
5130.00	6.556043E+11
5140.00	6.550916E+11
5150.00	6.543996E+11
5160.00	6.537109E+11
5170.00	6.530255E+11
5180.00	6.523434E+11
5190.00	6.516645E+11
5200.00	6.509889E+11
5210.00	6.503165E+11
5220.00	6.496472E+11
5230.00	6.489813E+11
5240.00	6.484974E+11
5250.00	6.478374E+11
5260.00	6.471806E+11
5270.00	6.465269E+11
5280.00	6.458763E+11
5290.00	6.452288E+11
5300.00	6.445722E+11
5310.00	6.439038E+11
5320.00	6.432384E+11
5330.00	6.425759E+11
5340.00	6.419164E+11
5350.00	6.412598E+11
5360.00	6.406061E+11
5370.00	6.399553E+11
5380.00	6.393074E+11
5390.00	6.386624E+11
5400.00	6.380202E+11
5410.00	6.373808E+11
5420.00	6.367444E+11
5430.00	6.359379E+11
5440.00	6.353073E+11
5450.00	6.346796E+11
5460.00	6.340545E+11
5470.00	6.334322E+11
5480.00	6.328127E+11
5490.00	6.321959E+11
5500.00	6.315818E+11
5510.00	6.309705E+11
5520.00	6.303618E+11
5530.00	6.295862E+11
5540.00	6.289832E+11
5550.00	6.283828E+11
5560.00	6.277851E+11
5570.00	6.271901E+11
5580.00	6.265976E+11
5590.00	6.260078E+11
5600.00	6.252529E+11
5610.00	6.246686E+11
5620.00	6.240869E+11
5630.00	6.235077E+11
5640.00	6.229310E+11
5650.00	6.221907E+11
5660.00	6.216194E+11
5670.00	6.210289E+11
5680.00	6.204387E+11
5690.00	6.196860E+11
5700.00	6.191009E+11
5710.00	6.185183E+11
5720.00	6.179380E+11
5730.00	6.171962E+11
5740.00	6.166209E+11
5750.00	6.160480E+11
5760.00	6.154773E+11
5770.00	6.147463E+11
5780.00	6.141806E+11
5790.00	6.136172E+11
5800.00	6.128941E+11
5810.00	6.123355E+11
5820.00	6.117793E+11
5830.00	6.110641E+11
5840.00	6.105126E+11
5850.00	6.099633E+11
5860.00	6.092560E+11
5870.00	6.087115E+11
5880.00	6.081691E+11
5890.00	6.074694E+11
5900.00	6.069317E+11
5910.00	6.062373E+11
5920.00	6.057041E+11
5930.00	6.051732E+11
5940.00	6.044862E+11
5950.00	6.039598E+11
5960.00	6.032779E+11
5970.00	6.027560E+11
5980.00	6.022362E+11
5990.00	6.015617E+11
6000.00	6.010464E+11
6010.00	6.003768E+11
6020.00	5.998659E+11
6030.00	5.992011E+11
6040.00	5.986946E+11
6050.00	5.980347E+11
6060.00	5.975146E+11
6070.00	5.968385E+11
6080.00	5.963194E+11
6090.00	5.958022E+11
6100.00	5.951329E+11
6110.00	5.944661E+11
6120.00	5.939550E+11
6130.00	5.932928E+11
6140.00	5.927859E+11
6150.00	5.921280E+11
6160.00	5.916251E+11
6170.00	5.909718E+11
6180.00	5.904728E+11
6190.00	5.898239E+11
6200.00	5.893289E+11
6210.00	5.886843E+11
6220.00	5.881931E+11
6230.00	5.875529E+11
6240.00	5.869150E+11
6250.00	5.864298E+11
6260.00	5.857962E+11
6270.00	5.853147E+11
6280.00	5.846854E+11
6290.00	5.840582E+11
6300.00	5.835826E+11
6310.00	5.829597E+11
6320.00	5.823390E+11
6330.00	5.818689E+11
6340.00	5.812524E+11
6350.00	5.807860E+11
6360.00	5.801736E+11
6370.00	5.795633E+11
6380.00	5.791025E+11
6390.00	5.784963E+11
6400.00	5.778922E+11
6410.00	5.774369E+11
6420.00	5.768369E+11
6430.00	5.762389E+11
6440.00	5.756430E+11
6450.00	5.751950E+11
6460.00	5.746031E+11
6470.00	5.740114E+11
6480.00	5.735499E+11
6490.00	5.729452E+11
6500.00	5.723424E+11
6510.00	5.717415E+11
6520.00	5.712869E+11
6530.00	5.706897E+11
6540.00	5.700945E+11
6550.00	5.695013E+11
6560.00	5.690532E+11
6570.00	5.684636E+11
6580.00	5.678758E+11
6590.00	5.672901E+11
6600.00	5.667061E+11
6610.00	5.662663E+11
6620.00	5.656858E+11
6630.00	5.651073E+11
6640.00	5.645306E+11
6650.00	5.639558E+11
6660.00	5.635239E+11
6670.00	5.629525E+11
6680.00	5.623830E+11
6690.00	5.618153E+11
6700.00	5.612493E+11
6710.00	5.606852E+11
6720.00	5.601230E+11
6730.00	5.597020E+11
6740.00	5.591431E+11
6750.00	5.585858E+11
6760.00	5.580304E+11
6770.00	5.574767E+11
6780.00	5.569248E+11
6790.00	5.563746E+11
6800.00	5.558261E+11
6810.00	5.552794E+11
6820.00	5.548721E+11
6830.00	5.543286E+11
6840.00	5.537868E+11
6850.00	5.532467E+11
6860.00	5.527082E+11
6870.00	5.521714E+11
6880.00	5.516364E+11
6890.00	5.511029E+11
6900.00	5.505712E+11
6910.00	5.500410E+11
6920.00	5.495048E+11
6930.00	5.489610E+11
6940.00	5.484188E+11
6950.00	5.478782E+11
6960.00	5.473390E+11
6970.00	5.468014E+11
6980.00	5.462654E+11
6990.00	5.457308E+11
7000.00	5.451978E+11
7010.00	5.446662E+11
7020.00	5.441362E+11
7030.00	5.436077E+11
7040.00	5.430806E+11
7050.00	5.425550E+11
7060.00	5.420309E+11
7070.00	5.415083E+11
7080.00	5.409871E+11
7090.00	5.404673E+11
7100.00	5.399490E+11
7110.00	5.394320E+11
7120.00	5.389166E+11
7130.00	5.384025E+11
7140.00	5.377584E+11
7150.00	5.372474E+11
7160.00	5.367377E+11
7170.00	5.362293E+11
7180.00	5.357225E+11
7190.00	5.352169E+11
7200.00	5.347127E+11
7210.00	5.342099E+11
7220.00	5.337085E+11
7230.00	5.330785E+11
7240.00	5.325800E+11
7250.00	5.320826E+11
7260.00	5.315867E+11
7270.00	5.310920E+11
7280.00	5.305987E+11
7290.00	5.301067E+11
7300.00	5.294874E+11
7310.00	5.289981E+11
7320.00	5.285101E+11
7330.00	5.280233E+11
7340.00	5.275380E+11
7350.00	5.270537E+11
7360.00	5.264433E+11
7370.00	5.259618E+11
7380.00	5.254815E+11
7390.00	5.250024E+11
7400.00	5.245130E+11
7410.00	5.238942E+11
7420.00	5.234033E+11
7430.00	5.229136E+11
7440.00	5.224249E+11
7450.00	5.218115E+11
7460.00	5.213253E+11
7470.00	5.208401E+11
7480.00	5.203560E+11
7490.00	5.197479E+11
7500.00	5.192661E+11
7510.00	5.187853E+11
7520.00	5.183057E+11
7530.00	5.177026E+11
7540.00	5.172252E+11
7550.00	5.167488E+11
7560.00	5.161496E+11
7570.00	5.156754E+11
7580.00	5.152022E+11
7590.00	5.147300E+11
7600.00	5.141355E+11
7610.00	5.136654E+11
7620.00	5.131964E+11
7630.00	5.126055E+11
7640.00	5.121385E+11
7650.00	5.116725E+11
7660.00	5.110852E+11
7670.00	5.106211E+11
7680.00	5.101580E+11
7690.00	5.095741E+11
7700.00	5.091129E+11
7710.00	5.086527E+11
7720.00	5.080721E+11
7730.00	5.076138E+11
7740.00	5.070355E+11
7750.00	5.065791E+11
7760.00	5.061234E+11
7770.00	5.055483E+11
7780.00	5.050945E+11
7790.00	5.045216E+11
7800.00	5.040696E+11
7810.00	5.036184E+11
7820.00	5.030485E+11
7830.00	5.025990E+11
7840.00	5.020311E+11
7850.00	5.015834E+11
7860.00	5.011363E+11
7870.00	5.005713E+11
7880.00	5.001260E+11
7890.00	4.995629E+11
7900.00	4.991192E+11
7910.00	4.985495E+11
7920.00	4.980957E+11
7930.00	4.975247E+11
7940.00	4.970722E+11
7950.00	4.965030E+11
7960.00	4.960519E+11
7970.00	4.954842E+11
7980.00	4.950344E+11
7990.00	4.945850E+11
8000.00	4.940196E+11
8010.00	4.935714E+11
8020.00	4.930075E+11
8030.00	4.924444E+11
8040.00	4.919980E+11
8050.00	4.914363E+11
8060.00	4.909910E+11
8070.00	4.904307E+11
8080.00	4.899863E+11
8090.00	4.894273E+11
8100.00	4.889839E+11
8110.00	4.884261E+11
8120.00	4.879836E+11
8130.00	4.874269E+11
8140.00	4.869853E+11
8150.00	4.864298E+11
8160.00	4.858749E+11
8170.00	4.854343E+11
8180.00	4.848804E+11
8190.00	4.844406E+11
8200.00	4.838877E+11
8210.00	4.834484E+11
8220.00	4.828963E+11
8230.00	4.823447E+11
8240.00	4.819063E+11
8250.00	4.813554E+11
8260.00	4.809174E+11
8270.00	4.803673E+11
8280.00	4.798175E+11
8290.00	4.793800E+11
8300.00	4.788307E+11
8310.00	4.782818E+11
8320.00	4.778447E+11
8330.00	4.772963E+11
8340.00	4.768592E+11
8350.00	4.763110E+11
8360.00	4.757631E+11
8370.00	4.753261E+11
8380.00	4.747782E+11
8390.00	4.742306E+11
8400.00	4.737933E+11
8410.00	4.732458E+11
8420.00	4.726981E+11
8430.00	4.722604E+11
8440.00	4.717127E+11
8450.00	4.711620E+11
8460.00	4.707092E+11
8470.00	4.701467E+11
8480.00	4.695839E+11
8490.00	4.690208E+11
8500.00	4.685662E+11
8510.00	4.680023E+11
8520.00	4.674380E+11
8530.00	4.669816E+11
8540.00	4.664162E+11
8550.00	4.658503E+11
8560.00	4.652838E+11
8570.00	4.648245E+11
8580.00	4.642565E+11
8590.00	4.636879E+11
8600.00	4.631186E+11
8610.00	4.626555E+11
8620.00	4.620843E+11
8630.00	4.615123E+11
8640.00	4.609392E+11
8650.00	4.604716E+11
8660.00	4.598964E+11
8670.00	4.593199E+11
8680.00	4.587422E+11
8690.00	4.581634E+11
8700.00	4.576887E+11
8710.00	4.571069E+11
8720.00	4.565236E+11
8730.00	4.559387E+11
8740.00	4.553523E+11
8750.00	4.548689E+11
8760.00	4.542788E+11
8770.00	4.536867E+11
8780.00	4.530926E+11
8790.00	4.524966E+11
8800.00	4.520023E+11
8810.00	4.514016E+11
8820.00	4.507984E+11
8830.00	4.501928E+11
8840.00	4.495846E+11
8850.00	4.489737E+11
8860.00	4.483599E+11
8870.00	4.478460E+11
8880.00	4.472259E+11
8890.00	4.466026E+11
8900.00	4.459758E+11
8910.00	4.453454E+11
8920.00	4.447113E+11
8930.00	4.440732E+11
8940.00	4.434310E+11
8950.00	4.428862E+11
8960.00	4.422351E+11
8970.00	4.415792E+11
8980.00	4.409185E+11
8990.00	4.402525E+11
9000.00	4.395811E+11
9010.00	4.389041E+11
9020.00	4.382211E+11
9030.00	4.375318E+11
9040.00	4.368223E+11
9050.00	4.361044E+11
9060.00	4.354787E+11
9070.00	4.347453E+11
9080.00	4.340036E+11
9090.00	4.332534E+11
9100.00	4.324939E+11
9110.00	4.317249E+11
9120.00	4.309458E+11
9130.00	4.301560E+11
9140.00	4.293549E+11
9150.00	4.285419E+11
9160.00	4.277164E+11
9170.00	4.268776E+11
9180.00	4.260248E+11
9190.00	4.251571E+11
9200.00	4.242735E+11
9210.00	4.233733E+11
9220.00	4.224552E+11
9230.00	4.215182E+11
9240.00	4.205611E+11
9250.00	4.195824E+11
9260.00	4.185807E+11
9270.00	4.175545E+11
9280.00	4.165019E+11
9290.00	4.154211E+11
9300.00	4.143100E+11
9310.00	4.131663E+11
9320.00	4.119873E+11
9330.00	4.107704E+11
9340.00	4.095123E+11
9350.00	4.082095E+11
9360.00	4.068583E+11
9370.00	4.054541E+11
9380.00	4.039922E+11
9390.00	4.024671E+11
9400.00	4.008725E+11
9410.00	3.992013E+11
9420.00	3.974456E+11
9430.00	3.955065E+11
9440.00	3.935535E+11
9450.00	3.914843E+11
9460.00	3.892852E+11
9470.00	3.869400E+11
9480.00	3.844304E+11
9490.00	3.817349E+11
9500.00	3.788289E+11
9510.00	3.756837E+11
9520.00	3.722669E+11
9530.00	3.685413E+11
9540.00	3.643840E+11
9550.00	3.599171E+11
9560.00	3.550135E+11
9570.00	3.496334E+11
9580.00	3.437480E+11
9590.00	3.373486E+11
9600.00	3.304566E+11
9610.00	3.231297E+11
9620.00	3.154621E+11
9630.00	3.075056E+11
9640.00	2.995321E+11
9650.00	2.915934E+11
9660.00	2.837877E+11
9670.00	2.761944E+11
9680.00	2.688660E+11
9690.00	2.617706E+11
9700.00	2.550388E+11
9710.00	2.486100E+11
9720.00	2.424766E+11
