#Energy[eV] Flux[ph/s/500mA/0.1%bW] 
100.00 1.0356431000751454E+12 
110.00 1.1030968014896404E+12 
120.00 1.1681964619176863E+12 
130.00 1.2317247602638796E+12 
140.00 1.2915140188633125E+12 
150.00 1.3504229403724648E+12 
160.00 1.4065319579205337E+12 
170.00 1.4601428114685862E+12 
180.00 1.5136553022273042E+12 
190.00 1.5654655760886104E+12 
200.00 1.6178116124209929E+12 
210.00 1.6688377026675720E+12 
220.00 1.7202911616626812E+12 
230.00 1.7710823643322310E+12 
240.00 1.8213730538302944E+12 
250.00 1.8708123140016670E+12 
260.00 1.9204299377107480E+12 
270.00 1.9692015702348281E+12 
280.00 2.0180081372622966E+12 
290.00 2.0649096829785127E+12 
300.00 2.1127782945429346E+12 
310.00 2.1583538231987268E+12 
320.00 2.2053466323929570E+12 
330.00 2.2500772414582158E+12 
340.00 2.2957190481253311E+12 
350.00 2.3410439156905181E+12 
360.00 2.3853494873674478E+12 
370.00 2.4296332707280615E+12 
380.00 2.4738404815941406E+12 
390.00 2.5170992595601631E+12 
400.00 2.5593001289140693E+12 
410.00 2.6024785810934199E+12 
420.00 2.6447042345757344E+12 
430.00 2.6858249368377388E+12 
440.00 2.7269814548701543E+12 
450.00 2.7681399592713027E+12 
460.00 2.8091493519403584E+12 
470.00 2.8492142376061924E+12 
480.00 2.8893600762577212E+12 
490.00 2.9302922012726982E+12 
500.00 2.9702851846496392E+12 
510.00 3.0087810557552012E+12 
520.00 3.0433662110445879E+12 
530.00 3.0839296304611685E+12 
540.00 3.1226638188837466E+12 
550.00 3.1611343697448760E+12 
560.00 3.1994831583253340E+12 
570.00 3.2377574554100342E+12 
580.00 3.2749921019605874E+12 
590.00 3.3121645197449160E+12 
600.00 3.3492299105027178E+12 
610.00 3.3842167341921821E+12 
620.00 3.4209842764332510E+12 
630.00 3.4573176540218613E+12 
640.00 3.4935746580952837E+12 
650.00 3.5297899175476978E+12 
660.00 3.5649983851753940E+12 
670.00 3.6011577285938350E+12 
680.00 3.6363097596316577E+12 
690.00 3.6714285278510444E+12 
700.00 3.7055204149877397E+12 
710.00 3.7404893302444346E+12 
720.00 3.7739999331190586E+12 
730.00 3.8073375107380396E+12 
740.00 3.8418132811569985E+12 
750.00 3.8761392949112300E+12 
760.00 3.9104118735483242E+12 
770.00 3.9436743948604136E+12 
780.00 3.9769178597374941E+12 
790.00 4.0101465765626484E+12 
800.00 4.0433647150119971E+12 
810.00 4.0765745129639863E+12 
820.00 4.1097774161793540E+12 
830.00 4.1419964627834565E+12 
840.00 4.1742081549443926E+12 
850.00 4.2073963041987402E+12 
860.00 4.2396015480918594E+12 
870.00 4.2708286284449355E+12 
880.00 4.3030301254151396E+12 
890.00 4.3352342337695967E+12 
900.00 4.3664605947670620E+12 
910.00 4.3976821619561138E+12 
920.00 4.4289034692964219E+12 
930.00 4.4601260023240098E+12 
940.00 4.4913692439842773E+12 
950.00 4.5226100182211943E+12 
960.00 4.5538466440435918E+12 
970.00 4.5841181895150518E+12 
980.00 4.6154031659954385E+12 
990.00 4.6457801144284404E+12 
1000.00 4.6764632887029277E+12 
1010.00 4.7071625030857061E+12 
1020.00 4.7377426107329785E+12 
1030.00 4.7672822523103330E+12 
1040.00 4.7977620630801289E+12 
1050.00 4.8282152031570361E+12 
1060.00 4.8576682626143350E+12 
1070.00 4.8871084529631328E+12 
1080.00 4.9165335396731729E+12 
1090.00 4.9459454858530557E+12 
1100.00 4.9753463906937793E+12 
1110.00 5.0047402278945371E+12 
1120.00 5.0341222723121494E+12 
1130.00 5.0625179470719082E+12 
1140.00 5.0918875030258213E+12 
1150.00 5.1202678110425049E+12 
1160.00 5.1496219768808945E+12 
1170.00 5.1779909003763721E+12 
1180.00 5.2063529403005811E+12 
1190.00 5.2347068784319443E+12 
1200.00 5.2630592090417959E+12 
1210.00 5.2904210615764443E+12 
1220.00 5.3187602481766074E+12 
1230.00 5.3471009652963711E+12 
1240.00 5.3744587325783096E+12 
1250.00 5.4018041071759766E+12 
1260.00 5.4301973755797666E+12 
1270.00 5.4576376574089395E+12 
1280.00 5.4850611719557656E+12 
1290.00 5.5124778437512900E+12 
1300.00 5.5398850879081797E+12 
1310.00 5.5672792980423506E+12 
1320.00 5.5936930467016914E+12 
1330.00 5.6211178638846709E+12 
1340.00 5.6485962009162764E+12 
1350.00 5.6751258517329551E+12 
1360.00 5.7016398592179482E+12 
1370.00 5.7291146417874668E+12 
1380.00 5.7556023876348984E+12 
1390.00 5.7820746545477900E+12 
1400.00 5.8085682684589521E+12 
1410.00 5.8350726745806709E+12 
1420.00 5.8615674698830068E+12 
1430.00 5.8880453090274805E+12 
1440.00 5.9135366971387969E+12 
1450.00 5.9399796148563643E+12 
1460.00 5.9654364965787900E+12 
1470.00 5.9918599354024619E+12 
1480.00 6.0172813249102363E+12 
1490.00 6.0427019070467871E+12 
1500.00 6.0690719294748291E+12 
1510.00 6.0944538934070127E+12 
1520.00 6.1198266674181982E+12 
1530.00 6.1451795247896777E+12 
1540.00 6.1705170207501475E+12 
1550.00 6.1948554251984170E+12 
1560.00 6.2201915191051299E+12 
1570.00 6.2454737853739248E+12 
1580.00 6.2697729757393896E+12 
1590.00 6.2950237402673555E+12 
1600.00 6.3192811274434375E+12 
1610.00 6.3445038396992461E+12 
1620.00 6.3687241646792168E+12 
1630.00 6.3929300198663408E+12 
1640.00 6.4171110569175586E+12 
1650.00 6.4412761526145625E+12 
1660.00 6.4654131946548857E+12 
1670.00 6.4895309250689717E+12 
1680.00 6.5136235679375039E+12 
1690.00 6.5376942752881172E+12 
1700.00 6.5617372304799170E+12 
1710.00 6.5847791383174346E+12 
1720.00 6.6087630824461865E+12 
1730.00 6.6317441937236328E+12 
1740.00 6.6556813237210342E+12 
1750.00 6.6786004651172793E+12 
1760.00 6.7014904745461055E+12 
1770.00 6.7253132593062598E+12 
1780.00 6.7481201009038311E+12 
1790.00 6.7708957498916357E+12 
1800.00 6.7936252006690547E+12 
1810.00 6.8162990005766152E+12 
1820.00 6.8389377136364629E+12 
1830.00 6.8615174705766807E+12 
1840.00 6.8840369154870000E+12 
1850.00 6.9055185350591738E+12 
1860.00 6.9279097288637949E+12 
1870.00 6.9502282049393574E+12 
1880.00 6.9714918369797881E+12 
1890.00 6.9936444245089756E+12 
1900.00 7.0147257328398008E+12 
1910.00 7.0357021978232373E+12 
1920.00 7.0575394181048877E+12 
1930.00 7.0782708921845625E+12 
1940.00 7.0988565990535020E+12 
1950.00 7.1192782102720020E+12 
1960.00 7.1395134907645742E+12 
1970.00 7.1595341951423027E+12 
1980.00 7.1793073478220713E+12 
1990.00 7.1987912399270488E+12 
2000.00 7.2179331182455938E+12 
2010.00 7.2366655429122236E+12 
2020.00 7.2539275910773711E+12 
2030.00 7.2715435006656602E+12 
2040.00 7.2874036167927158E+12 
2050.00 7.3032108787248242E+12 
2060.00 7.3166592040290762E+12 
2070.00 7.3290962735885381E+12 
2080.00 7.3375698173680947E+12 
2090.00 7.3419179268713301E+12 
2100.00 7.3349600760637812E+12 
2110.00 7.2968919045454268E+12 
2120.00 6.8024351700939775E+12 
2130.00 6.7955456045052695E+12 
2140.00 6.9546769244819404E+12 
2150.00 7.0204392995412129E+12 
2160.00 7.0628648577731377E+12 
2170.00 7.0914454933628203E+12 
2180.00 7.1062149172802285E+12 
2190.00 7.0914203237168232E+12 
2200.00 6.9574169364524297E+12 
2210.00 7.0086006613959961E+12 
2220.00 7.0982281686787783E+12 
2230.00 7.1577975643835039E+12 
2240.00 7.2048685470321221E+12 
2250.00 7.2467732567992354E+12 
2260.00 7.2839594898438076E+12 
2270.00 7.3194200714492021E+12 
2280.00 7.3520212875905508E+12 
2290.00 7.3831089190448789E+12 
2300.00 7.4129627610377178E+12 
2310.00 7.4417472396660742E+12 
2320.00 7.4697356043122725E+12 
2330.00 7.4970540956989648E+12 
2340.00 7.5237906175870566E+12 
2350.00 7.5500143101963311E+12 
2360.00 7.5757867422429707E+12 
2370.00 7.6011550946612568E+12 
2380.00 7.6260819007154648E+12 
2390.00 7.6506976175406465E+12 
2400.00 7.6740975920801484E+12 
2410.00 7.6981529870914824E+12 
2420.00 7.7210329099708398E+12 
2430.00 7.7446118598987363E+12 
2440.00 7.7669792669586816E+12 
2450.00 7.7900770093521670E+12 
2460.00 7.8120571151454443E+12 
2470.00 7.8347794391870918E+12 
2480.00 7.8563872490359277E+12 
2490.00 7.8777732544718135E+12 
2500.00 7.8989462715883369E+12 
2510.00 7.9208701049357773E+12 
2520.00 7.9416779120858311E+12 
2530.00 7.9622903256496670E+12 
2540.00 7.9826483253927715E+12 
2550.00 8.0027289850310957E+12 
2560.00 8.0225383652628730E+12 
2570.00 8.0420428400374609E+12 
2580.00 8.0602734371032793E+12 
2590.00 8.0787674506602529E+12 
2600.00 8.0965516329708027E+12 
2610.00 8.1133097751352080E+12 
2620.00 8.1275947826131963E+12 
2630.00 8.1390211037100801E+12 
2640.00 8.1322058813142363E+12 
2650.00 8.0790815102989932E+12 
2660.00 8.1295491615287363E+12 
2670.00 8.1615718219307266E+12 
2680.00 8.1885220589575684E+12 
2690.00 8.2146100013983906E+12 
2700.00 8.2386070974572041E+12 
2710.00 8.2616748559263301E+12 
2720.00 8.2841573447153408E+12 
2730.00 8.3062716038826670E+12 
2740.00 8.3289999896870166E+12 
2750.00 8.3504369517693525E+12 
2760.00 8.3716807412087578E+12 
2770.00 8.3927407514329062E+12 
2780.00 8.4135902554322705E+12 
2790.00 8.4341427449297715E+12 
2800.00 8.4536480337637188E+12 
2810.00 8.4739817208032686E+12 
2820.00 8.4941942512539014E+12 
2830.00 8.5142852057492734E+12 
2840.00 8.5342982524577715E+12 
2850.00 8.5532979555276191E+12 
2860.00 8.5731031070900391E+12 
2870.00 8.5919343210983330E+12 
2880.00 8.6116558639606299E+12 
2890.00 8.6303153073855713E+12 
2900.00 8.6498292519247188E+12 
2910.00 8.6683426175145557E+12 
2920.00 8.6876713571469893E+12 
2930.00 8.7059531759321289E+12 
2940.00 8.7241459605595156E+12 
2950.00 8.7431294309163281E+12 
2960.00 8.7609956438818691E+12 
2970.00 8.7787109956261133E+12 
2980.00 8.7962019946836523E+12 
2990.00 8.8131874061067754E+12 
3000.00 8.8297342690603301E+12 
3010.00 8.8456596123568320E+12 
3020.00 8.8573050260430957E+12 
3030.00 8.8436604125839961E+12 
3040.00 8.8689762193163203E+12 
3050.00 8.8919006948681348E+12 
3060.00 8.9135532553716328E+12 
3070.00 8.9342106669581855E+12 
3080.00 8.9534180331892930E+12 
3090.00 8.9733370265065059E+12 
3100.00 8.9929715153558047E+12 
3110.00 9.0114828312142402E+12 
3120.00 9.0308294243868828E+12 
3130.00 9.0499972670702656E+12 
3140.00 9.0681318149684219E+12 
3150.00 9.0871398341906816E+12 
3160.00 9.1050490756330566E+12 
3170.00 9.1228819521246484E+12 
3180.00 9.1415618878415098E+12 
3190.00 9.1591361994562891E+12 
3200.00 9.1766624435425391E+12 
3210.00 9.1950365180348418E+12 
3220.00 9.2123498354838711E+12 
3230.00 9.2296009125629551E+12 
3240.00 9.2466592598925117E+12 
3250.00 9.2635633766908242E+12 
3260.00 9.2802968377338340E+12 
3270.00 9.2964186251976387E+12 
3280.00 9.3119888467524004E+12 
3290.00 9.3253436718665508E+12 
3300.00 9.3266934287871035E+12 
3310.00 9.3418138940061465E+12 
3320.00 9.3651486401983730E+12 
3330.00 9.3777932565728145E+12 
3340.00 9.3991416358509941E+12 
3350.00 9.4202542967967539E+12 
3360.00 9.4318649346489160E+12 
3370.00 9.4526223452724082E+12 
3380.00 9.4733385816343613E+12 
3390.00 9.4845705283146582E+12 
3400.00 9.5051175178147539E+12 
3410.00 9.5256300806286406E+12 
3420.00 9.5366788512135254E+12 
3430.00 9.5570949910787500E+12 
3440.00 9.5774653478776191E+12 
3450.00 9.5884393450799316E+12 
3460.00 9.6087740076033535E+12 
3470.00 9.6196656395109141E+12 
3480.00 9.6399326781143047E+12 
3490.00 9.6601608345829590E+12 
3500.00 9.6709942214900664E+12 
3510.00 9.6911666826139336E+12 
3520.00 9.7113254348878105E+12 
3530.00 9.7220796073196855E+12 
3540.00 9.7421994204194531E+12 
3550.00 9.7529281347564902E+12 
3560.00 9.7729998230305664E+12 
3570.00 9.7930748365914688E+12 
3580.00 9.8037160295297227E+12 
3590.00 9.8237508734672285E+12 
3600.00 9.8343724972431875E+12 
3610.00 9.8543801301110840E+12 
3620.00 9.8743876365881934E+12 
3630.00 9.8849556974636992E+12 
3640.00 9.9049338587754453E+12 
3650.00 9.9154626002489492E+12 
3660.00 9.9354079916742949E+12 
3670.00 9.9459351469397793E+12 
3680.00 9.9658658527211875E+12 
3690.00 9.9857779146071973E+12 
3700.00 9.9962627278789609E+12 
3710.00 1.0016149665826041E+13 
3720.00 1.0026608592246812E+13 
3730.00 1.0046484695426508E+13 
3740.00 1.0056925728833217E+13 
3750.00 1.0076792093063145E+13 
3760.00 1.0087215880545053E+13 
3770.00 1.0107066864765910E+13 
3780.00 1.0117464945004342E+13 
3790.00 1.0137289787701312E+13 
3800.00 1.0157099725692863E+13 
3810.00 1.0167489851618615E+13 
3820.00 1.0187291712523705E+13 
3830.00 1.0197662480828059E+13 
3840.00 1.0217442357264326E+13 
3850.00 1.0227799455291105E+13 
3860.00 1.0247586250496369E+13 
3870.00 1.0257930459788146E+13 
3880.00 1.0277695947893523E+13 
3890.00 1.0288023717494225E+13 
3900.00 1.0307783145001029E+13 
3910.00 1.0318091280773594E+13 
3920.00 1.0337830481248684E+13 
3930.00 1.0348146266468873E+13 
3940.00 1.0367907342635896E+13 
3950.00 1.0378240410383051E+13 
3960.00 1.0388584428508418E+13 
3970.00 1.0408334705857486E+13 
3980.00 1.0418653042587955E+13 
3990.00 1.0438390957901916E+13 
4000.00 1.0448698569201627E+13 
4010.00 1.0468427931166699E+13 
4020.00 1.0478725817901863E+13 
4030.00 1.0498446466649365E+13 
4040.00 1.0508733874424436E+13 
4050.00 1.0528447367824684E+13 
4060.00 1.0538725881048723E+13 
4070.00 1.0558432120427846E+13 
4080.00 1.0568700959478842E+13 
4090.00 1.0578954967245203E+13 
4100.00 1.0598660040946248E+13 
4110.00 1.0608906539742646E+13 
4120.00 1.0628604175036314E+13 
4130.00 1.0638833794018189E+13 
4140.00 1.0658509891755439E+13 
4150.00 1.0668738027660711E+13 
4160.00 1.0678971346201406E+13 
4170.00 1.0698648914595541E+13 
4180.00 1.0708873381598602E+13 
4190.00 1.0728539574332088E+13 
4200.00 1.0738741562985055E+13 
4210.00 1.0748948230946752E+13 
4220.00 1.0768610370516010E+13 
4230.00 1.0779147807047521E+13 
4240.00 1.0799936384330812E+13 
4250.00 1.0811092789911736E+13 
4260.00 1.0821388556370936E+13 
4270.00 1.0841154885978250E+13 
4280.00 1.0851453895855428E+13 
4290.00 1.0871225971169600E+13 
4300.00 1.0881529011259115E+13 
4310.00 1.0891841804546123E+13 
4320.00 1.0911590853486943E+13 
4330.00 1.0921876715182275E+13 
4340.00 1.0932153030164371E+13 
4350.00 1.0951893229062107E+13 
4360.00 1.0962164423384340E+13 
4370.00 1.0972427990383645E+13 
4380.00 1.0992161548135537E+13 
4390.00 1.1002414633211496E+13 
4400.00 1.1022208421001600E+13 
4410.00 1.1033232046108418E+13 
4420.00 1.1044265034241535E+13 
4430.00 1.1064118032257998E+13 
4440.00 1.1074420831764029E+13 
4450.00 1.1084720742178404E+13 
4460.00 1.1104499729365545E+13 
4470.00 1.1114793566633025E+13 
4480.00 1.1125071145351154E+13 
4490.00 1.1144832446490713E+13 
4500.00 1.1155113494137771E+13 
4510.00 1.1165405487309586E+13 
4520.00 1.1185139765096738E+13 
4530.00 1.1195405138715750E+13 
4540.00 1.1205657153838438E+13 
4550.00 1.1215910285339713E+13 
4560.00 1.1235640732429781E+13 
4570.00 1.1245882680791637E+13 
4580.00 1.1256129619407967E+13 
4590.00 1.1275844084517695E+13 
4600.00 1.1286086101024805E+13 
4610.00 1.1296295839421115E+13 
4620.00 1.1315995472341684E+13 
4630.00 1.1326211375153701E+13 
4640.00 1.1336430864644008E+13 
4650.00 1.1346651924958348E+13 
4660.00 1.1366347724061961E+13 
4670.00 1.1376566414204189E+13 
4680.00 1.1386750384766281E+13 
4690.00 1.1396941712621861E+13 
4700.00 1.1416614305792725E+13 
4710.00 1.1426795247092037E+13 
4720.00 1.1436981853767143E+13 
4730.00 1.1456658753167951E+13 
4740.00 1.1466854108910896E+13 
4750.00 1.1477017230322727E+13 
4760.00 1.1487185543469533E+13 
4770.00 1.1506849883119822E+13 
4780.00 1.1517023609672830E+13 
4790.00 1.1527199738847818E+13 
4800.00 1.1537346149711072E+13 
4810.00 1.1556998148731078E+13 
4820.00 1.1567141013857301E+13 
4830.00 1.1577285892290688E+13 
4840.00 1.1587429438550918E+13 
4850.00 1.1597562834174773E+13 
4860.00 1.1617204244050094E+13 
4870.00 1.1627343871103346E+13 
4880.00 1.1637491700190070E+13 
4890.00 1.1647625491225381E+13 
4900.00 1.1667246527840508E+13 
4910.00 1.1677374130565635E+13 
4920.00 1.1687483628144193E+13 
4930.00 1.1697601873533627E+13 
4940.00 1.1707720963214178E+13 
4950.00 1.1727347204188729E+13 
4960.00 1.1737472799783820E+13 
4970.00 1.1747568057255762E+13 
4980.00 1.1757671850779730E+13 
4990.00 1.1767776007224061E+13 
5000.00 1.1787390460458275E+13 
5010.00 1.1797500440203867E+13 
5020.00 1.1807581928674119E+13 
5030.00 1.1817671742018094E+13 
5040.00 1.1827761455625301E+13 
5050.00 1.1847363563473025E+13 
5060.00 1.1857461970460287E+13 
5070.00 1.1867544707859340E+13 
5080.00 1.1877635662161865E+13 
5090.00 1.1887707238633141E+13 
5100.00 1.1897769914352576E+13 
5110.00 1.1917350766602549E+13 
5120.00 1.1927418424567680E+13 
5130.00 1.1937494089069053E+13 
5140.00 1.1947563099650961E+13 
5150.00 1.1957626658218168E+13 
5160.00 1.1967698124833887E+13 
5170.00 1.1987264852614432E+13 
5180.00 1.1997324886572883E+13 
5190.00 1.2007388479657580E+13 
5200.00 1.2017452794860662E+13 
5210.00 1.2027524910620887E+13 
5220.00 1.2037570504016266E+13 
5230.00 1.2047614159722750E+13 
5240.00 1.2067177196873971E+13 
5250.00 1.2077208488433807E+13 
5260.00 1.2087247269916863E+13 
5270.00 1.2097288129609391E+13 
5280.00 1.2107332162107266E+13 
5290.00 1.2117383687888961E+13 
5300.00 1.2127894382946082E+13 
5310.00 1.2138448911948322E+13 
5320.00 1.2158399334901855E+13 
5330.00 1.2168495637885514E+13 
5340.00 1.2178599616973838E+13 
5350.00 1.2188692956937822E+13 
5360.00 1.2198782700058561E+13 
5370.00 1.2208880021925613E+13 
5380.00 1.2218957767605904E+13 
5390.00 1.2229041525436549E+13 
5400.00 1.2239125118524889E+13 
5410.00 1.2258719824516730E+13 
5420.00 1.2268797291100668E+13 
5430.00 1.2278866014913990E+13 
5440.00 1.2288929619853248E+13 
5450.00 1.2299000499026041E+13 
5460.00 1.2309069010127230E+13 
5470.00 1.2319143121440676E+13 
5480.00 1.2329220880161668E+13 
5490.00 1.2339280966276320E+13 
5500.00 1.2349348215992746E+13 
5510.00 1.2359405063981768E+13 
5520.00 1.2378970814293189E+13 
5530.00 1.2389014310277863E+13 
5540.00 1.2399069055558453E+13 
5550.00 1.2409133299859404E+13 
5560.00 1.2419204618903557E+13 
5570.00 1.2429243496298469E+13 
5580.00 1.2439283242539455E+13 
5590.00 1.2449327422446723E+13 
5600.00 1.2459352905399912E+13 
5610.00 1.2469385152209867E+13 
5620.00 1.2479421244554543E+13 
5630.00 1.2489457017541826E+13 
5640.00 1.2499499557592369E+13 
5650.00 1.2509535521265111E+13 
5660.00 1.2519563951398740E+13 
5670.00 1.2529599051749107E+13 
5680.00 1.2539622325983996E+13 
5690.00 1.2549642718928223E+13 
5700.00 1.2559669685172961E+13 
5710.00 1.2579217792240955E+13 
5720.00 1.2589231051623557E+13 
5730.00 1.2599250791875049E+13 
5740.00 1.2609250205745570E+13 
5750.00 1.2619255278667502E+13 
5760.00 1.2629265677549951E+13 
5770.00 1.2639273806871807E+13 
5780.00 1.2649288307457699E+13 
5790.00 1.2659302972257814E+13 
5800.00 1.2669303070701859E+13 
5810.00 1.2679309443845369E+13 
5820.00 1.2689313012631281E+13 
5830.00 1.2699304798238695E+13 
5840.00 1.2709302761945770E+13 
5850.00 1.2719302839960352E+13 
5860.00 1.2729303631644676E+13 
5870.00 1.2739310603742256E+13 
5880.00 1.2749310288515611E+13 
5890.00 1.2759302837628189E+13 
5900.00 1.2769301470755754E+13 
5910.00 1.2779300832705775E+13 
5920.00 1.2789302175718205E+13 
5930.00 1.2799309604918051E+13 
5940.00 1.2809306672873578E+13 
5950.00 1.2819299433389475E+13 
5960.00 1.2829298183727965E+13 
5970.00 1.2839296854454693E+13 
5980.00 1.2849298204888510E+13 
5990.00 1.2859305547207365E+13 
6000.00 1.2869288887093244E+13 
6010.00 1.2879263015184766E+13 
6020.00 1.2879695352917250E+13 
6030.00 1.2889786433020576E+13 
6040.00 1.2899935438340801E+13 
6050.00 1.2910090217513354E+13 
6060.00 1.2920148254486941E+13 
6070.00 1.2930158842393203E+13 
6080.00 1.2940175321130701E+13 
6090.00 1.2950180488321611E+13 
6100.00 1.2960181401676354E+13 
6110.00 1.2970188109703412E+13 
6120.00 1.2980184107730021E+13 
6130.00 1.2990174308346402E+13 
6140.00 1.3000170207214043E+13 
6150.00 1.3010167159667398E+13 
6160.00 1.3020165714563309E+13 
6170.00 1.3030169969475852E+13 
6180.00 1.3040167213758881E+13 
6190.00 1.3050155145190330E+13 
6200.00 1.3060148680403182E+13 
6210.00 1.3070137689562641E+13 
6220.00 1.3070560627320857E+13 
6230.00 1.3080543263393459E+13 
6240.00 1.3090530510375717E+13 
6250.00 1.3100520820572162E+13 
6260.00 1.3110516665580027E+13 
6270.00 1.3120514291363842E+13 
6280.00 1.3130496135080434E+13 
6290.00 1.3140483427514889E+13 
6300.00 1.3150475818702395E+13 
6310.00 1.3160451600904115E+13 
6320.00 1.3170432764829902E+13 
6330.00 1.3180419323366865E+13 
6340.00 1.3180834589117836E+13 
6350.00 1.3190810283341525E+13 
