#Energy[eV] Flux[ph/s/eV/100mA] 
5.00000E+03	4.710832256876774902E+11 
5.02000E+03	4.697880243209249268E+11 
5.04000E+03	4.683262334903347168E+11 
5.06000E+03	4.668694281961630249E+11 
5.08000E+03	4.654173777968004150E+11 
5.10000E+03	4.639698485145135498E+11 
5.12000E+03	4.625266031546250000E+11 
5.14000E+03	4.610874007994839478E+11 
5.16000E+03	4.596519964976126099E+11 
5.18000E+03	4.582201409254789429E+11 
5.20000E+03	4.567915800380108643E+11 
5.22000E+03	4.553660546890270386E+11 
5.24000E+03	4.539433002416470337E+11 
5.26000E+03	4.525230461433006592E+11 
5.28000E+03	4.511050154833088989E+11 
5.30000E+03	4.495106050390604858E+11 
5.32000E+03	4.480132238365272827E+11 
5.34000E+03	4.465154722468640747E+11 
5.36000E+03	4.450169921046458130E+11 
5.38000E+03	4.435174141011965332E+11 
5.40000E+03	4.418608269809959106E+11 
5.42000E+03	4.403586979066334839E+11 
5.44000E+03	4.388542862236189575E+11 
5.46000E+03	4.371940372070245361E+11 
5.48000E+03	4.356845743515807495E+11 
5.50000E+03	4.341715136948895264E+11 
5.52000E+03	4.325036327458796387E+11 
5.54000E+03	4.309827333620132446E+11 
5.56000E+03	4.294567610767043457E+11 
5.58000E+03	4.277768037579460449E+11 
5.60000E+03	4.262398519973544922E+11 
5.62000E+03	4.245493541764338379E+11 
5.64000E+03	4.229990927128818359E+11 
5.66000E+03	4.212956158081298828E+11 
5.68000E+03	4.196475243372362061E+11 
5.70000E+03	4.178407822763526611E+11 
5.72000E+03	4.161661905839531250E+11 
5.74000E+03	4.143365421179374390E+11 
5.76000E+03	4.124945290750553589E+11 
5.78000E+03	4.107795007524053345E+11 
5.80000E+03	4.089090439713435059E+11 
5.82000E+03	4.070232251094620972E+11 
5.84000E+03	4.052587249686315308E+11 
5.86000E+03	4.033379295130589600E+11 
5.88000E+03	4.013982155482161865E+11 
5.90000E+03	3.995735143797268677E+11 
5.92000E+03	3.975910226161896973E+11 
5.94000E+03	3.955853396996760254E+11 
5.96000E+03	3.935548494813425903E+11 
5.98000E+03	3.914978239662028198E+11 
6.00000E+03	3.895433515867545166E+11 
6.02000E+03	3.874266831562456665E+11 
6.04000E+03	3.852775027087361450E+11 
6.06000E+03	3.830534406678935547E+11 
6.08000E+03	3.807364240614851074E+11 
6.10000E+03	3.783765868161157227E+11 
6.12000E+03	3.759709062277371826E+11 
6.14000E+03	3.735161078306359863E+11 
6.16000E+03	3.710086374286282349E+11 
6.18000E+03	3.684446293270818481E+11 
6.20000E+03	3.658198701212849731E+11 
6.22000E+03	3.631297573761749878E+11 
6.24000E+03	3.603692522570423584E+11 
6.26000E+03	3.575328251667095337E+11 
6.28000E+03	3.546143931156488647E+11 
6.30000E+03	3.516072473492986450E+11 
6.32000E+03	3.485039695699779053E+11 
6.34000E+03	3.451828621939114990E+11 
6.36000E+03	3.418629632394994507E+11 
6.38000E+03	3.384194002753806763E+11 
6.40000E+03	3.348407704249930420E+11 
6.42000E+03	3.311142812260872803E+11 
6.44000E+03	3.271186701300590820E+11 
6.46000E+03	3.230528853726963501E+11 
6.48000E+03	3.187299458985548096E+11 
6.50000E+03	3.141366681460440063E+11 
6.52000E+03	3.091970976505419312E+11 
6.54000E+03	3.040868359080020752E+11 
6.56000E+03	2.986726070021724243E+11 
6.58000E+03	2.928241096525114746E+11 
6.60000E+03	2.866927431876553955E+11 
6.62000E+03	2.801357259746937866E+11 
6.64000E+03	2.730130646295257263E+11 
6.66000E+03	2.654457161307632446E+11 
6.68000E+03	2.571972113891601868E+11 
6.70000E+03	2.483697872387398376E+11 
6.72000E+03	2.387359355836018982E+11 
6.74000E+03	2.283965280089705200E+11 
6.76000E+03	2.171687272330127258E+11 
6.78000E+03	2.052045245396590271E+11 
6.80000E+03	1.924437320159739380E+11 
6.82000E+03	1.791751663705011292E+11 
6.84000E+03	1.655335489795987244E+11 
6.86000E+03	1.519519169931159668E+11 
6.88000E+03	1.386720136238789978E+11 
6.90000E+03	1.260506272141632996E+11 
6.92000E+03	1.143359511183053284E+11 
6.94000E+03	1.035627681239986267E+11 
6.96000E+03	9.383822071600375366E+10 
6.98000E+03	8.515608142929562378E+10 
7.00000E+03	7.738872156619442749E+10 
7.02000E+03	7.047694528325195312E+10 
7.04000E+03	6.434784689461121368E+10 
7.06000E+03	5.886934720295291901E+10 
7.08000E+03	5.398140564145491791E+10 
7.10000E+03	4.961056284871927643E+10 
7.12000E+03	4.570670942406407166E+10 
7.14000E+03	4.218390866213778687E+10 
7.16000E+03	3.900925516930489349E+10 
7.18000E+03	3.614085666673089600E+10 
7.20000E+03	3.354255829809709167E+10 
7.22000E+03	3.118312759691993713E+10 
7.24000E+03	2.903553740030888367E+10 
7.26000E+03	2.708480557624114990E+10 
7.28000E+03	2.529306502893708801E+10 
7.30000E+03	2.365161695043066406E+10 
7.32000E+03	2.214491584903339767E+10 
7.34000E+03	2.075932941161517334E+10 
7.36000E+03	1.948286881337617874E+10 
7.38000E+03	1.830496100144712830E+10 
7.40000E+03	1.721590273812825775E+10 
7.42000E+03	1.620731535916403008E+10 
7.44000E+03	1.527245746552838135E+10 
7.46000E+03	1.440472630295686913E+10 
7.48000E+03	1.359822662754102516E+10 
7.50000E+03	1.284768034506402206E+10 
7.52000E+03	1.214835438707168388E+10 
7.54000E+03	1.149244710816990471E+10 
7.56000E+03	1.088340446671792030E+10 
7.58000E+03	1.031401495724978638E+10 
7.60000E+03	9.781152441453990936E+09 
7.62000E+03	9.281976087377946854E+09 
7.64000E+03	8.813918376491861343E+09 
7.66000E+03	8.374629474297714233E+09 
7.68000E+03	7.959550755490377426E+09 
7.70000E+03	7.571720973846471786E+09 
7.72000E+03	7.206816865857923508E+09 
7.74000E+03	6.863188709287099838E+09 
7.76000E+03	6.537379350920123100E+09 
7.78000E+03	6.232082837617357254E+09 
7.80000E+03	5.943972454471696854E+09 
7.82000E+03	5.670152836335775375E+09 
7.84000E+03	5.413091503161603928E+09 
7.86000E+03	5.170031585903918266E+09 
7.88000E+03	4.939998695978634834E+09 
7.90000E+03	4.720832089377198219E+09 
7.92000E+03	4.514118501465033531E+09 
7.94000E+03	4.316895452401700020E+09 
7.96000E+03	4.131134089804052353E+09 
7.98000E+03	3.954873731214749813E+09 
8.00000E+03	3.786478203631834507E+09 
8.02000E+03	3.627542509496681690E+09 
8.04000E+03	3.475628248844745636E+09 
8.06000E+03	3.332095015967463970E+09 
8.08000E+03	3.194670382501434326E+09 
8.10000E+03	3.064925166238249302E+09 
8.12000E+03	2.940293579102769852E+09 
8.14000E+03	2.822788959821570396E+09 
8.16000E+03	2.709701508737768173E+09 
8.18000E+03	2.602853275366207123E+09 
8.20000E+03	2.500333375166561127E+09 
8.22000E+03	2.402870342635734558E+09 
8.24000E+03	2.309691385874884605E+09 
8.26000E+03	2.220341414345020771E+09 
8.28000E+03	2.135693996236448050E+09 
8.30000E+03	2.054644122606342554E+09 
8.32000E+03	1.977035240269748449E+09 
8.34000E+03	1.902922498770197630E+09 
8.36000E+03	1.831925901997819662E+09 
8.38000E+03	1.763937428702438116E+09 
8.40000E+03	1.699454557286783457E+09 
8.42000E+03	1.636778670403554916E+09 
8.44000E+03	1.576913925892968893E+09 
8.46000E+03	1.520725353336349487E+09 
8.48000E+03	1.464830975455536842E+09 
8.50000E+03	1.412390270709715843E+09 
8.52000E+03	1.362252690821449518E+09 
8.54000E+03	1.313163032829021454E+09 
8.56000E+03	1.267493801283535242E+09 
8.58000E+03	1.222919522825140238E+09 
8.60000E+03	1.179055969039561749E+09 
8.62000E+03	1.139445436750230551E+09 
8.64000E+03	1.099535587614464998E+09 
8.66000E+03	1.061176491882614732E+09 
8.68000E+03	1.026226299387756705E+09 
8.70000E+03	9.901936486948637962E+08 
8.72000E+03	9.562468287436980009E+08 
8.74000E+03	9.258335644647282362E+08 
8.76000E+03	8.928433163906422853E+08 
8.78000E+03	8.634370855684677362E+08 
8.80000E+03	8.363949562768845558E+08 
8.82000E+03	8.064119269872827530E+08 
8.84000E+03	7.811077931669111252E+08 
8.86000E+03	7.568839377866244316E+08 
8.88000E+03	7.298761495141962767E+08 
8.90000E+03	7.070889188428444862E+08 
8.92000E+03	6.862955287572574615E+08 
8.94000E+03	6.607508558867611885E+08 
8.96000E+03	6.415584722822701931E+08 
8.98000E+03	6.225287504754846096E+08 
9.00000E+03	5.992173083635439873E+08 
9.02000E+03	5.824182102123639584E+08 
9.04000E+03	5.654820905701442957E+08 
9.06000E+03	5.439152550542442799E+08 
9.08000E+03	5.279888615410127044E+08 
9.10000E+03	5.141580960995460749E+08 
9.12000E+03	4.927294156781733036E+08 
9.14000E+03	4.799240751160395145E+08 
9.16000E+03	4.674118529946046472E+08 
9.18000E+03	4.473499942504329681E+08 
9.20000E+03	4.362908358559860587E+08 
9.22000E+03	4.251827310316854715E+08 
9.24000E+03	4.075979703294733167E+08 
9.26000E+03	3.958045204744200110E+08 
9.28000E+03	3.887209293125567436E+08 
9.30000E+03	3.706174380862744451E+08 
9.32000E+03	3.600249123856419921E+08 
9.34000E+03	3.554761375997818708E+08 
9.36000E+03	3.375661143382457495E+08 
9.38000E+03	3.282647558000403047E+08 
9.40000E+03	3.238821713943341970E+08 
9.42000E+03	3.100436577486052513E+08 
9.44000E+03	2.977255985414183140E+08 
9.46000E+03	2.962284693381977677E+08 
9.48000E+03	2.852674831386200190E+08 
9.50000E+03	2.696326507081009746E+08 
9.52000E+03	2.719477321731348038E+08 
9.54000E+03	2.615286068339008987E+08 
9.56000E+03	2.465177563233550191E+08 
9.58000E+03	2.474751105056474507E+08 
9.60000E+03	2.410510256998604238E+08 
9.62000E+03	2.268368596155373454E+08 
9.64000E+03	2.227778512612692416E+08 
9.66000E+03	2.243614278287250400E+08 
9.68000E+03	2.066248498546615839E+08 
9.70000E+03	2.016432844440363646E+08 
9.72000E+03	2.064389948548586071E+08 
9.74000E+03	1.870671181024615765E+08 
9.76000E+03	1.841894145614019334E+08 
9.78000E+03	1.867603613218630552E+08 
9.80000E+03	1.735970426536717117E+08 
9.82000E+03	1.649709500961951017E+08 
9.84000E+03	1.704893181751739085E+08 
9.86000E+03	1.619967521256496906E+08 
9.88000E+03	1.461273180675121844E+08 
9.90000E+03	1.580198516303255260E+08 
9.92000E+03	1.483703550833431184E+08 
9.94000E+03	1.330515452808457017E+08 
9.96000E+03	1.429137325207232833E+08 
9.98000E+03	1.370523187030659318E+08 
1.00000E+04	1.236589033183830827E+08 
1.00200E+04	1.254489225508958101E+08 
1.00400E+04	1.268531675754310340E+08 
1.00600E+04	1.049925726473585069E+08 
1.00800E+04	1.193182755875555873E+08 
1.01000E+04	1.064260406983919740E+08 
1.01200E+04	9.574208232420787215E+07 
1.01400E+04	1.079002700038101822E+08 
1.01600E+04	8.863932964732529223E+07 
1.01800E+04	9.273587638873696327E+07 
1.02000E+04	7.606133869240039587E+07 
1.02200E+04	8.963373032437078655E+07 
1.02400E+04	9.924089748321367800E+07 
1.02600E+04	1.078438511147915125E+08 
1.02800E+04	1.071756696527682394E+08 
1.03000E+04	1.065246746151656359E+08 
1.03200E+04	1.059181151403217167E+08 
1.03400E+04	1.043249045505990386E+08 
1.03600E+04	1.027756654728122503E+08 
1.03800E+04	1.012659854591120631E+08 
1.04000E+04	9.978022975212915242E+07 
1.04200E+04	9.804956295664322376E+07 
1.04400E+04	9.599053316888250411E+07 
1.04600E+04	9.399573732091937959E+07 
1.04800E+04	9.203659507274705172E+07 
1.05000E+04	9.011382470637273788E+07 
1.05200E+04	8.828487067733953893E+07 
1.05400E+04	8.648767847196957469E+07 
1.05600E+04	8.470821533895878494E+07 
1.05800E+04	8.296833661744429171E+07 
1.06000E+04	8.130237884595991671E+07 
1.06200E+04	7.967633657167945802E+07 
1.06400E+04	7.805990695319075882E+07 
1.06600E+04	7.648797137954097986E+07 
1.06800E+04	7.498778910252037644E+07 
1.07000E+04	7.351864213659629226E+07 
1.07200E+04	7.206619815839049220E+07 
1.07400E+04	7.064229400687894225E+07 
1.07600E+04	6.930053261283002794E+07 
1.07800E+04	6.796481701756340265E+07 
1.08000E+04	6.661509444800259173E+07 
1.08200E+04	6.533885048819462955E+07 
1.08400E+04	6.413336110813970119E+07 
1.08600E+04	6.291189945432311296E+07 
1.08800E+04	6.168476246034921706E+07 
1.09000E+04	6.053360232348378748E+07 
1.09200E+04	5.945246337021913379E+07 
1.09400E+04	5.834246899155142903E+07 
1.09600E+04	5.719280985206836462E+07 
1.09800E+04	5.616543191282802075E+07 
1.10000E+04	5.520890487388186902E+07 
1.10200E+04	5.417331329596522450E+07 
1.10400E+04	5.307486474069666862E+07 
1.10600E+04	5.202565809844858944E+07 
1.10800E+04	5.099495092792221904E+07 
1.11000E+04	4.988231182135007530E+07 
1.11200E+04	4.882175746813564003E+07 
1.11400E+04	4.789917844665184617E+07 
1.11600E+04	4.694768719223268330E+07 
1.11800E+04	4.589909914177824557E+07 
1.12000E+04	4.496962665561314672E+07 
1.12200E+04	4.419321584412541240E+07 
1.12400E+04	4.327441937030670792E+07 
1.12600E+04	4.230777484013115615E+07 
1.12800E+04	4.154139304076165706E+07 
1.13000E+04	4.081266648921854049E+07 
1.13200E+04	3.987167884931246191E+07 
1.13400E+04	3.886243603351493180E+07 
1.13600E+04	3.806469317259041965E+07 
1.13800E+04	3.720347628861663491E+07 
1.14000E+04	3.616888709196968377E+07 
1.14200E+04	3.537218605312750489E+07 
1.14400E+04	3.472068642634377629E+07 
1.14600E+04	3.375835454102609307E+07 
1.14800E+04	3.290149604982306063E+07 
1.15000E+04	3.188284160253885016E+07 
1.15200E+04	3.036217278647517785E+07 
1.15400E+04	2.993047001966222748E+07 
1.15600E+04	3.123761710885013640E+07 
1.15800E+04	3.252632476416945457E+07 
1.16000E+04	3.382061432033863664E+07 
1.16200E+04	3.359804682636740059E+07 
1.16400E+04	3.324664693096810952E+07 
1.16600E+04	3.290876295385290310E+07 
1.16800E+04	3.258289716221870482E+07 
1.17000E+04	3.225104719176533073E+07 
1.17200E+04	3.192531499992731959E+07 
1.17400E+04	3.163400862668361515E+07 
1.17600E+04	3.134004902465076745E+07 
1.17800E+04	3.102006528580682725E+07 
1.18000E+04	3.062155832810876518E+07 
1.18200E+04	3.022964628918292373E+07 
1.18400E+04	2.986257293736935779E+07 
1.18600E+04	2.946554862653734535E+07 
1.18800E+04	2.901280127658613399E+07 
1.19000E+04	2.860321069615426660E+07 
1.19200E+04	2.819825211219526827E+07 
1.19400E+04	2.777575595588217303E+07 
1.19600E+04	2.736302230047591031E+07 
1.19800E+04	2.700163098367306590E+07 
1.20000E+04	2.663182626955195516E+07 
1.20200E+04	2.624863959377148002E+07 
1.20400E+04	2.586603553261613846E+07 
1.20600E+04	2.525925896842064336E+07 
1.20800E+04	2.463812889072817191E+07 
1.21000E+04	2.464337669145043194E+07 
1.21200E+04	2.508148681637514383E+07 
1.21400E+04	2.554519956551678106E+07 
1.21600E+04	2.599767604060598835E+07 
1.21800E+04	2.582157534932912514E+07 
1.22000E+04	2.563937111025747657E+07 
1.22200E+04	2.548256357363015413E+07 
1.22400E+04	2.532402496007694304E+07 
1.22600E+04	2.516131692814906687E+07 
1.22800E+04	2.501029052490210161E+07 
1.23000E+04	2.487086639061221108E+07 
1.23200E+04	2.475185182467912138E+07 
1.23400E+04	2.461893736281549186E+07 
1.23600E+04	2.442696229440700263E+07 
1.23800E+04	2.426093512934994698E+07 
1.24000E+04	2.410676361716840789E+07 
1.24200E+04	2.394591228778338432E+07 
1.24400E+04	2.377451784496400133E+07 
1.24600E+04	2.362885801094394550E+07 
1.24800E+04	2.350727784725251794E+07 
1.25000E+04	2.337017002249413729E+07 
1.25200E+04	2.322400279827078059E+07 
1.25400E+04	2.310361402851235867E+07 
1.25600E+04	2.300672358438248187E+07 
1.25800E+04	2.290163451016408578E+07 
1.26000E+04	2.277834501921615750E+07 
1.26200E+04	2.265725381626392901E+07 
1.26400E+04	2.256619267052118480E+07 
1.26600E+04	2.245566955793207139E+07 
1.26800E+04	2.232793857700752839E+07 
1.27000E+04	2.222442863890527934E+07 
1.27200E+04	2.215447552450705320E+07 
1.27400E+04	2.207459409042700380E+07 
1.27600E+04	2.197327167208192125E+07 
1.27800E+04	2.188108084157344699E+07 
1.28000E+04	2.184294584455746785E+07 
1.28200E+04	2.179952179491710290E+07 
1.28400E+04	2.170714100711455569E+07 
1.28600E+04	2.163699192588737234E+07 
1.28800E+04	2.163639354823626950E+07 
1.29000E+04	2.161122562191425264E+07 
1.29200E+04	2.153645845780819282E+07 
1.29400E+04	2.149928794741524011E+07 
1.29600E+04	2.151262186848955974E+07 
1.29800E+04	2.152513219576412812E+07 
1.30000E+04	2.148342159218063578E+07 
1.30200E+04	2.143728202620922774E+07 
1.30400E+04	2.148359713684824854E+07 
1.30600E+04	2.155407545512444526E+07 
1.30800E+04	2.151420559188547358E+07 
1.31000E+04	2.148474606151963398E+07 
1.31200E+04	2.157709658780357614E+07 
1.31400E+04	2.165891018475322798E+07 
1.31600E+04	2.164905732133174688E+07 
1.31800E+04	2.165115422398016974E+07 
1.32000E+04	2.174213156824249402E+07 
1.32200E+04	2.188065090378060564E+07 
1.32400E+04	2.192751465613941848E+07 
1.32600E+04	2.190459152986846119E+07 
1.32800E+04	2.202356624499114603E+07 
1.33000E+04	2.223997810015859082E+07 
1.33200E+04	2.228620449926914647E+07 
1.33400E+04	2.227247860979484767E+07 
1.33600E+04	2.244994036910228431E+07 
1.33800E+04	2.268003192843280733E+07 
1.34000E+04	2.277579366589678451E+07 
1.34200E+04	2.281393077804839984E+07 
1.34400E+04	2.295434357164309919E+07 
1.34600E+04	2.324850932154753804E+07 
1.34800E+04	2.345841964634341374E+07 
1.35000E+04	2.342561287526282296E+07 
1.35200E+04	2.355993105116994679E+07 
1.35400E+04	2.397245426088609174E+07 
1.35600E+04	2.416218516990979016E+07 
1.35800E+04	2.414145867624524608E+07 
1.36000E+04	2.436184071949162707E+07 
1.36200E+04	2.475918301268309355E+07 
1.36400E+04	2.503552195586270094E+07 
1.36600E+04	2.512139717211660743E+07 
1.36800E+04	2.523883687839418650E+07 
1.37000E+04	2.571979968129488081E+07 
1.37200E+04	2.620483690956520662E+07 
1.37400E+04	2.619281371259393916E+07 
1.37600E+04	2.631585993292171508E+07 
1.37800E+04	2.699292796293640509E+07 
1.38000E+04	2.745907435635543615E+07 
1.38200E+04	2.751629339396788925E+07 
1.38400E+04	2.774465466551535204E+07 
1.38600E+04	2.831837772709094360E+07 
1.38800E+04	2.898761805861905590E+07 
1.39000E+04	2.926506483603638411E+07 
1.39200E+04	2.925344751775665209E+07 
1.39400E+04	2.995936302170622349E+07 
1.39600E+04	3.099365934033612534E+07 
1.39800E+04	3.111460317125995457E+07 
1.40000E+04	3.116353227739705518E+07 
1.40200E+04	3.208925479332661629E+07 
1.40400E+04	3.304182406674572453E+07 
1.40600E+04	3.347825744698754698E+07 
1.40800E+04	3.366318877047379315E+07 
1.41000E+04	3.424759322863401473E+07 
1.41200E+04	3.569872166955441236E+07 
1.41400E+04	3.653403720239809155E+07 
1.41600E+04	3.623830454488310218E+07 
1.41800E+04	3.713255387211535126E+07 
1.42000E+04	3.902601901318509877E+07 
1.42200E+04	3.968992976771622151E+07 
1.42400E+04	3.984519608338903636E+07 
1.42600E+04	4.071832105974584073E+07 
1.42800E+04	4.237997852530440688E+07 
1.43000E+04	4.416692862567247450E+07 
1.43200E+04	4.427627296628394723E+07 
1.43400E+04	4.444860534613695741E+07 
1.43600E+04	4.730175422943038493E+07 
1.43800E+04	4.936287259356760234E+07 
1.44000E+04	4.917188797236499935E+07 
1.44200E+04	5.018944353935039043E+07 
1.44400E+04	5.263245725617542863E+07 
1.44600E+04	5.530804859492017329E+07 
1.44800E+04	5.662361038723956048E+07 
1.45000E+04	5.622091712628018111E+07 
1.45200E+04	5.933652064897382259E+07 
1.45400E+04	6.406425647886629403E+07 
1.45600E+04	6.433353712020058185E+07 
1.45800E+04	6.498789154644755274E+07 
1.46000E+04	6.861092863481694460E+07 
1.46200E+04	7.304119652146166563E+07 
1.46400E+04	7.663819188596278429E+07 
1.46600E+04	7.602004613328169286E+07 
1.46800E+04	7.923247424456711113E+07 
1.47000E+04	8.781661145261754096E+07 
1.47200E+04	9.049414370019356906E+07 
1.47400E+04	9.174577097073499858E+07 
1.47600E+04	9.554596653813710809E+07 
1.47800E+04	1.040947296455434263E+08 
1.48000E+04	1.133783003050995171E+08 
1.48200E+04	1.124207066796153486E+08 
1.48400E+04	1.179515458855735809E+08 
1.48600E+04	1.303623561816402972E+08 
1.48800E+04	1.425301337517372072E+08 
1.49000E+04	1.472061570311360061E+08 
1.49200E+04	1.502586643263245225E+08 
1.49400E+04	1.705885061566219032E+08 
1.49600E+04	1.896882544612210691E+08 
1.49800E+04	2.024183914012306333E+08 
1.50000E+04	2.074742874842613935E+08 
1.50200E+04	2.371027556131165624E+08 
1.50400E+04	2.811786967005097866E+08 
1.50600E+04	2.979336742026049495E+08 
1.50800E+04	3.404734298706830740E+08 
1.51000E+04	4.047185016626779437E+08 
1.51200E+04	5.176167281630572081E+08 
1.51400E+04	7.019981467061804533E+08 
1.51600E+04	8.144055353295538425E+08 
1.51800E+04	8.077189148570379019E+08 
1.52000E+04	8.592883448278352022E+08 
1.52200E+04	8.677536561408510208E+08 
1.52400E+04	8.024588832837436199E+08 
1.52600E+04	7.689103204097172022E+08 
1.52800E+04	8.150469124001859426E+08 
1.53000E+04	8.427066801258498430E+08 
1.53200E+04	7.866901760624353886E+08 
1.53400E+04	7.361914499834542274E+08 
1.53600E+04	7.723224404022400379E+08 
1.53800E+04	8.170596950275658369E+08 
1.54000E+04	7.760661627263159752E+08 
1.54200E+04	7.117339028042283058E+08 
1.54400E+04	7.316769978189550638E+08 
1.54600E+04	7.885285949589507580E+08 
1.54800E+04	7.668000638378721476E+08 
