#Energy[eV] Flux[ph/s/eV/100mA] 
5.00000E+03	4.667970952195086060E+11 
5.02000E+03	4.657588855371093750E+11 
5.04000E+03	4.645530109600111084E+11 
5.06000E+03	4.633495149807119751E+11 
5.08000E+03	4.621481983542387085E+11 
5.10000E+03	4.609488585193546143E+11 
5.12000E+03	4.597512893608016357E+11 
5.14000E+03	4.585538836995876465E+11 
5.16000E+03	4.573576820631946411E+11 
5.18000E+03	4.561625999676352539E+11 
5.20000E+03	4.549684249443290405E+11 
5.22000E+03	4.537749400579426270E+11 
5.24000E+03	4.525819236113854980E+11 
5.26000E+03	4.513891488577584839E+11 
5.28000E+03	4.501963836808726196E+11 
5.30000E+03	4.488440561960245972E+11 
5.32000E+03	4.476512956130377808E+11 
5.34000E+03	4.464578103529640503E+11 
5.36000E+03	4.452633433744618530E+11 
5.38000E+03	4.440682506515378418E+11 
5.40000E+03	4.427162499417026978E+11 
5.42000E+03	4.415189865657546387E+11 
5.44000E+03	4.403196423803458862E+11 
5.46000E+03	4.389641646296195679E+11 
5.48000E+03	4.377604387232701416E+11 
5.50000E+03	4.365537005918058472E+11 
5.52000E+03	4.351919313219470825E+11 
5.54000E+03	4.339788492013538818E+11 
5.56000E+03	4.327617239929215698E+11 
5.58000E+03	4.313905543531655884E+11 
5.60000E+03	4.301649057371889038E+11 
5.62000E+03	4.287857972436846313E+11 
5.64000E+03	4.275500295285043335E+11 
5.66000E+03	4.261613207799451294E+11 
5.68000E+03	4.249137065659863281E+11 
5.70000E+03	4.235135968804160767E+11 
5.72000E+03	4.222522588098524780E+11 
5.74000E+03	4.208387886187308960E+11 
5.76000E+03	4.194181892072971191E+11 
5.78000E+03	4.181327062122272339E+11 
5.80000E+03	4.166954589965278320E+11 
5.82000E+03	4.152493218939031982E+11 
5.84000E+03	4.139343957895782471E+11 
5.86000E+03	4.124678210653173218E+11 
5.88000E+03	4.109903175790136719E+11 
5.90000E+03	4.096398062848765869E+11 
5.92000E+03	4.081374528890932617E+11 
5.94000E+03	4.066240369920508423E+11 
5.96000E+03	4.050971514516104736E+11 
5.98000E+03	4.035552456325507812E+11 
6.00000E+03	4.021325074075166626E+11 
6.02000E+03	4.005611573014625244E+11 
6.04000E+03	3.989717030705392456E+11 
6.06000E+03	3.973629607297732544E+11 
6.08000E+03	3.957344106205076294E+11 
6.10000E+03	3.940840506548967896E+11 
6.12000E+03	3.924103870091662598E+11 
6.14000E+03	3.907118840144124756E+11 
6.16000E+03	3.889868969948456421E+11 
6.18000E+03	3.872336619515404663E+11 
6.20000E+03	3.854502840356816406E+11 
6.22000E+03	3.836347247257443848E+11 
6.24000E+03	3.817847874841008301E+11 
6.26000E+03	3.798981016851885986E+11 
6.28000E+03	3.779721046446574097E+11 
6.30000E+03	3.760040213808441772E+11 
6.32000E+03	3.739908419341430664E+11 
6.34000E+03	3.718070712300434570E+11 
6.36000E+03	3.696944524744214478E+11 
6.38000E+03	3.675260411608264771E+11 
6.40000E+03	3.652975979202715454E+11 
6.42000E+03	3.630044831299801636E+11 
6.44000E+03	3.605238300792312622E+11 
6.46000E+03	3.580865597425233154E+11 
6.48000E+03	3.555678193517087402E+11 
6.50000E+03	3.529608342273577881E+11 
6.52000E+03	3.501442937330451660E+11 
6.54000E+03	3.473386484064046021E+11 
6.56000E+03	3.444198857044743042E+11 
6.58000E+03	3.412673100980083008E+11 
6.60000E+03	3.380919385745658569E+11 
6.62000E+03	3.347696113615326538E+11 
6.64000E+03	3.311795877691935425E+11 
6.66000E+03	3.275216602124705200E+11 
6.68000E+03	3.235665298490484009E+11 
6.70000E+03	3.195054338254721069E+11 
6.72000E+03	3.151111870969396362E+11 
6.74000E+03	3.105658713051157837E+11 
6.76000E+03	3.056507483771311646E+11 
6.78000E+03	3.005355771221313477E+11 
6.80000E+03	2.950003495163882446E+11 
6.82000E+03	2.892119541473104248E+11 
6.84000E+03	2.829628551608251953E+11 
6.86000E+03	2.764221355371851196E+11 
6.88000E+03	2.694023775197259216E+11 
6.90000E+03	2.619992749617746887E+11 
6.92000E+03	2.543151641845764160E+11 
6.94000E+03	2.462264360636845093E+11 
6.96000E+03	2.378772727328585205E+11 
6.98000E+03	2.294193409016154480E+11 
7.00000E+03	2.207963984022681580E+11 
7.02000E+03	2.121809126764558716E+11 
7.04000E+03	2.037307253801634521E+11 
7.06000E+03	1.953970616139987488E+11 
7.08000E+03	1.873138159820914307E+11 
7.10000E+03	1.795301542221703186E+11 
7.12000E+03	1.721323695369566345E+11 
7.14000E+03	1.650273221687185974E+11 
7.16000E+03	1.582771218453885193E+11 
7.18000E+03	1.518785021235683899E+11 
7.20000E+03	1.458219846500581970E+11 
7.22000E+03	1.400940252926505737E+11 
7.24000E+03	1.346786587934862061E+11 
7.26000E+03	1.295991759284616547E+11 
7.28000E+03	1.247555215878125458E+11 
7.30000E+03	1.201724433197036591E+11 
7.32000E+03	1.158331402523743896E+11 
7.34000E+03	1.117215992276901093E+11 
7.36000E+03	1.078227162973311157E+11 
7.38000E+03	1.041223490780228119E+11 
7.40000E+03	1.006073232388838654E+11 
7.42000E+03	9.726540951622079468E+10 
7.44000E+03	9.408528281864179993E+10 
7.46000E+03	9.105647099962951660E+10 
7.48000E+03	8.816929880536460876E+10 
7.50000E+03	8.541483033547164917E+10 
7.52000E+03	8.278481241429920959E+10 
7.54000E+03	8.024687542333052063E+10 
7.56000E+03	7.784422348512792969E+10 
7.58000E+03	7.554479615928019714E+10 
7.60000E+03	7.334256009517431641E+10 
7.62000E+03	7.123192506670837402E+10 
7.64000E+03	6.920770654229951477E+10 
7.66000E+03	6.726509145634175110E+10 
7.68000E+03	6.537957037424358368E+10 
7.70000E+03	6.358762276557429504E+10 
7.72000E+03	6.186474795535926056E+10 
7.74000E+03	6.020734816468247986E+10 
7.76000E+03	5.859416754832654572E+10 
7.78000E+03	5.705831016554015350E+10 
7.80000E+03	5.557843410153718567E+10 
7.82000E+03	5.413529644659594727E+10 
7.84000E+03	5.275974598731217194E+10 
7.86000E+03	5.143242411281329346E+10 
7.88000E+03	5.015106427697349548E+10 
7.90000E+03	4.889868715269326782E+10 
7.92000E+03	4.770336386079273987E+10 
7.94000E+03	4.653386015076445007E+10 
7.96000E+03	4.541696983932177734E+10 
7.98000E+03	4.433654475514160919E+10 
8.00000E+03	4.327791325868650055E+10 
8.02000E+03	4.226577636898406219E+10 
8.04000E+03	4.127315575405516815E+10 
8.06000E+03	4.032394507792733765E+10 
8.08000E+03	3.939222822996870422E+10 
8.10000E+03	3.850084608818604279E+10 
8.12000E+03	3.762516686485512543E+10 
8.14000E+03	3.678703532248289490E+10 
8.16000E+03	3.596301730715460205E+10 
8.18000E+03	3.517401439616808319E+10 
8.20000E+03	3.439771123877588654E+10 
8.22000E+03	3.365411598100675964E+10 
8.24000E+03	3.292196023932543564E+10 
8.26000E+03	3.221075571673753738E+10 
8.28000E+03	3.152916451620050049E+10 
8.30000E+03	3.085736559555953217E+10 
8.32000E+03	3.021333414050144577E+10 
8.34000E+03	2.957814114546408844E+10 
8.36000E+03	2.896037595658372879E+10 
8.38000E+03	2.836788305698403931E+10 
8.40000E+03	2.778297766637611771E+10 
8.42000E+03	2.721374110634696960E+10 
8.44000E+03	2.665963905807647324E+10 
8.46000E+03	2.612792718100737762E+10 
8.48000E+03	2.560241141915684509E+10 
8.50000E+03	2.509055681852962494E+10 
8.52000E+03	2.459191077365114594E+10 
8.54000E+03	2.411319714835174179E+10 
8.56000E+03	2.363954334487656021E+10 
8.58000E+03	2.317786304553217316E+10 
8.60000E+03	2.272775963353582382E+10 
8.62000E+03	2.228888422007890701E+10 
8.64000E+03	2.186732920673849106E+10 
8.66000E+03	2.144971875512881470E+10 
8.68000E+03	2.103943821629509735E+10 
8.70000E+03	2.063751566871444321E+10 
8.72000E+03	2.024539200547067261E+10 
8.74000E+03	1.986275364593368530E+10 
8.76000E+03	1.948932147448671341E+10 
8.78000E+03	1.912477086523811340E+10 
8.80000E+03	1.876889875532440948E+10 
8.82000E+03	1.842137441295362091E+10 
8.84000E+03	1.808733786717501831E+10 
8.86000E+03	1.775576418253799057E+10 
8.88000E+03	1.743186379467841721E+10 
8.90000E+03	1.711544154593409348E+10 
8.92000E+03	1.680620055082149315E+10 
8.94000E+03	1.650407160017394447E+10 
8.96000E+03	1.620868390685979080E+10 
8.98000E+03	1.591535999212147903E+10 
9.00000E+03	1.563318812628108597E+10 
9.02000E+03	1.535728334942030525E+10 
9.04000E+03	1.508755705301212502E+10 
9.06000E+03	1.482362700541762352E+10 
9.08000E+03	1.456564820178116035E+10 
9.10000E+03	1.431311922027115631E+10 
9.12000E+03	1.406616444813468552E+10 
9.14000E+03	1.382453815692636681E+10 
9.16000E+03	1.358795221787130356E+10 
9.18000E+03	1.335278390720345497E+10 
9.20000E+03	1.312617189038324928E+10 
9.22000E+03	1.290461102462427711E+10 
9.24000E+03	1.268759829867352104E+10 
9.26000E+03	1.247501283923824883E+10 
9.28000E+03	1.226275559633357620E+10 
9.30000E+03	1.205362193784672928E+10 
9.32000E+03	1.184935356474755478E+10 
9.34000E+03	1.164905787513174438E+10 
9.36000E+03	1.144957635629923630E+10 
9.38000E+03	1.125793729514222527E+10 
9.40000E+03	1.106954925062610245E+10 
9.42000E+03	1.088579440114078712E+10 
9.44000E+03	1.070214846178403664E+10 
9.46000E+03	1.052538944335931206E+10 
9.48000E+03	1.035273342455260277E+10 
9.50000E+03	1.017962188003923035E+10 
9.52000E+03	1.001403863039424706E+10 
9.54000E+03	9.850986165386781693E+09 
9.56000E+03	9.688423792989494324E+09 
9.58000E+03	9.532711963667753220E+09 
9.60000E+03	9.378604664092071533E+09 
9.62000E+03	9.226387203750213623E+09 
9.64000E+03	9.078955845599269867E+09 
9.66000E+03	8.931506126604436874E+09 
9.68000E+03	8.785972190617277145E+09 
9.70000E+03	8.636882005010643005E+09 
9.72000E+03	8.495172508030174255E+09 
9.74000E+03	8.355389043016974449E+09 
9.76000E+03	8.215275187321022034E+09 
9.78000E+03	8.082484500660158157E+09 
9.80000E+03	7.947074022392409325E+09 
9.82000E+03	7.818984861851686478E+09 
9.84000E+03	7.690463336278327942E+09 
9.86000E+03	7.565085609743306160E+09 
9.88000E+03	7.443334345490580559E+09 
9.90000E+03	7.316201030877499580E+09 
9.92000E+03	7.189629593519709587E+09 
9.94000E+03	7.063162074970960617E+09 
9.96000E+03	6.938985981291668892E+09 
9.98000E+03	6.819735000733186722E+09 
1.00000E+04	6.694868578199144363E+09 
1.00200E+04	6.568098589597887993E+09 
1.00400E+04	6.441514492652236938E+09 
1.00600E+04	6.314542615514878273E+09 
1.00800E+04	6.188611819309691429E+09 
1.01000E+04	6.060257870441184044E+09 
1.01200E+04	5.943635203724978447E+09 
1.01400E+04	5.823195105662454605E+09 
1.01600E+04	5.726285599501406670E+09 
1.01800E+04	5.630722036277485847E+09 
1.02000E+04	5.538949341669546127E+09 
1.02200E+04	6.314869980120423317E+09 
1.02400E+04	6.239881918310904503E+09 
1.02600E+04	6.170524898663450241E+09 
1.02800E+04	6.118818042890295029E+09 
1.03000E+04	6.068095599065067291E+09 
1.03200E+04	6.020214904294021606E+09 
1.03400E+04	5.971891906769382477E+09 
1.03600E+04	5.924524794098849297E+09 
1.03800E+04	5.878101734088263512E+09 
1.04000E+04	5.831665253975998878E+09 
1.04200E+04	5.776128450672595978E+09 
1.04400E+04	5.719965033176925659E+09 
1.04600E+04	5.664814436244269371E+09 
1.04800E+04	5.610671233954031944E+09 
1.05000E+04	5.557519325700152397E+09 
1.05200E+04	5.505370376443217278E+09 
1.05400E+04	5.445219535040302277E+09 
1.05600E+04	5.386133616960532188E+09 
1.05800E+04	5.328086764173830986E+09 
1.06000E+04	5.271076837094433784E+09 
1.06200E+04	5.215088714179576874E+09 
1.06400E+04	5.160093101411977768E+09 
1.06600E+04	5.106091772644890785E+09 
1.06800E+04	5.053073444631857872E+09 
1.07000E+04	5.001003811554552078E+09 
1.07200E+04	4.949404131837181091E+09 
1.07400E+04	4.894443209328006744E+09 
1.07600E+04	4.840447844266082764E+09 
1.07800E+04	4.787427841833657265E+09 
1.08000E+04	4.735378006975170135E+09 
1.08200E+04	4.684246130118675232E+09 
1.08400E+04	4.634050393268659592E+09 
1.08600E+04	4.584789464915271759E+09 
1.08800E+04	4.536402587097477913E+09 
1.09000E+04	4.488915564435943604E+09 
1.09200E+04	4.442331310348373413E+09 
1.09400E+04	4.396575152331082344E+09 
1.09600E+04	4.350462014975473404E+09 
1.09800E+04	4.303886669293403625E+09 
1.10000E+04	4.257269626123566628E+09 
1.10200E+04	4.211527867502490520E+09 
1.10400E+04	4.166670568889525890E+09 
1.10600E+04	4.122584900970377445E+09 
1.10800E+04	4.079348980242991924E+09 
1.11000E+04	4.036969597677241802E+09 
1.11200E+04	3.995312569003039360E+09 
1.11400E+04	3.954484069658863544E+09 
1.11600E+04	3.913390158689125538E+09 
1.11800E+04	3.874077526359723568E+09 
1.12000E+04	3.835576046957264423E+09 
1.12200E+04	3.797886634876175880E+09 
1.12400E+04	3.758253951302017212E+09 
1.12600E+04	3.717188862960292339E+09 
1.12800E+04	3.675924675133645535E+09 
1.13000E+04	3.636307672234349251E+09 
1.13200E+04	3.597553882348376751E+09 
1.13400E+04	3.559577430495186329E+09 
1.13600E+04	3.522153943650548935E+09 
1.13800E+04	3.484639049772150993E+09 
1.14000E+04	3.446335284146082878E+09 
1.14200E+04	3.406365513467503548E+09 
1.14400E+04	3.367370171533160686E+09 
1.14600E+04	3.328089603347578049E+09 
1.14800E+04	3.290370373493894100E+09 
1.15000E+04	3.258131539960130215E+09 
1.15200E+04	3.226379369551731586E+09 
1.15400E+04	3.194250820604725361E+09 
1.15600E+04	3.427993132283367157E+09 
1.15800E+04	3.403828655471786022E+09 
1.16000E+04	3.381571111788035393E+09 
1.16200E+04	3.360905999639246941E+09 
1.16400E+04	3.340863869905178070E+09 
1.16600E+04	3.322502626095606804E+09 
1.16800E+04	3.308713744322515011E+09 
1.17000E+04	3.295570690946151733E+09 
1.17200E+04	3.282138140961946487E+09 
1.17400E+04	3.270279040334142685E+09 
1.17600E+04	3.258175236078094959E+09 
1.17800E+04	3.247611292005239964E+09 
1.18000E+04	3.232433609355912209E+09 
1.18200E+04	3.216363867442131519E+09 
1.18400E+04	3.201797379234566212E+09 
1.18600E+04	3.186951028578486443E+09 
1.18800E+04	3.173658718726246357E+09 
1.19000E+04	3.160982484876285553E+09 
1.19200E+04	3.146651726533514023E+09 
1.19400E+04	3.132314903703162193E+09 
1.19600E+04	3.117730728991961002E+09 
1.19800E+04	3.104586083538812160E+09 
1.20000E+04	3.091244551106655121E+09 
1.20200E+04	3.079407066209504128E+09 
1.20400E+04	3.067272340792622089E+09 
1.20600E+04	3.056656664692019939E+09 
1.20800E+04	3.047419243686753750E+09 
1.21000E+04	3.171436521802955151E+09 
1.21200E+04	3.167392942062410831E+09 
1.21400E+04	3.164959148286675453E+09 
1.21600E+04	3.162352243260481834E+09 
1.21800E+04	3.161341795378410339E+09 
1.22000E+04	3.160210282369876385E+09 
1.22200E+04	3.160693673776647568E+09 
1.22400E+04	3.160664481397750854E+09 
1.22600E+04	3.161412987518870354E+09 
1.22800E+04	3.163814448121512890E+09 
1.23000E+04	3.166076335574213505E+09 
1.23200E+04	3.170012723833373547E+09 
1.23400E+04	3.173895655168799877E+09 
1.23600E+04	3.178545368566100121E+09 
1.23800E+04	3.184882327636266708E+09 
1.24000E+04	3.190312849184637070E+09 
1.24200E+04	3.194910971010560513E+09 
1.24400E+04	3.199388359428574562E+09 
1.24600E+04	3.204748135881648540E+09 
1.24800E+04	3.211831500471827030E+09 
1.25000E+04	3.218796403478256702E+09 
1.25200E+04	3.226676912558794022E+09 
1.25400E+04	3.236369781762640953E+09 
1.25600E+04	3.245956145306977272E+09 
1.25800E+04	3.256474609005296230E+09 
1.26000E+04	3.268913530807132244E+09 
1.26200E+04	3.281280838022133827E+09 
1.26400E+04	3.294576553765959263E+09 
1.26600E+04	3.307989204271299362E+09 
1.26800E+04	3.322265467351311684E+09 
1.27000E+04	3.336505024031559944E+09 
1.27200E+04	3.351930432726319790E+09 
1.27400E+04	3.368355396838266373E+09 
1.27600E+04	3.386577011447000980E+09 
1.27800E+04	3.405121153465769768E+09 
1.28000E+04	3.424833831060876369E+09 
1.28200E+04	3.445396969625830173E+09 
1.28400E+04	3.468204992437926292E+09 
1.28600E+04	3.491443342897260189E+09 
1.28800E+04	3.515565394570291996E+09 
1.29000E+04	3.540945037404205799E+09 
1.29200E+04	3.567955630362530708E+09 
1.29400E+04	3.596955206147490025E+09 
1.29600E+04	3.626138091628427982E+09 
1.29800E+04	3.657195960206991673E+09 
1.30000E+04	3.689469105230504036E+09 
1.30200E+04	3.722783456872101307E+09 
1.30400E+04	3.758165448373588085E+09 
1.30600E+04	3.795933029189497948E+09 
1.30800E+04	3.832489037416406631E+09 
1.31000E+04	3.871178290788310528E+09 
1.31200E+04	3.911899123612816811E+09 
1.31400E+04	3.953422565111379623E+09 
1.31600E+04	3.997026183569102764E+09 
1.31800E+04	4.043251681525752068E+09 
1.32000E+04	4.090339984943646431E+09 
1.32200E+04	4.140426244999616623E+09 
1.32400E+04	4.192653433612684250E+09 
1.32600E+04	4.246034011291996002E+09 
1.32800E+04	4.300862717985710144E+09 
1.33000E+04	4.359580621275920868E+09 
1.33200E+04	4.420065708287969589E+09 
1.33400E+04	4.481464122777768135E+09 
1.33600E+04	4.547205310714150429E+09 
1.33800E+04	4.615720497205986023E+09 
1.34000E+04	4.684591512604727745E+09 
1.34200E+04	4.757949206546158791E+09 
1.34400E+04	4.835501957887478828E+09 
1.34600E+04	4.913002279115869522E+09 
1.34800E+04	4.994682469715041161E+09 
1.35000E+04	5.082343634398931503E+09 
1.35200E+04	5.169921721422795296E+09 
1.35400E+04	5.260818623374175072E+09 
1.35600E+04	5.359713009555709839E+09 
1.35800E+04	5.458984641870744705E+09 
1.36000E+04	5.560061625827048302E+09 
1.36200E+04	5.671164526373011589E+09 
1.36400E+04	5.784302838530380249E+09 
1.36600E+04	5.897359418976821899E+09 
1.36800E+04	6.022206210265891075E+09 
1.37000E+04	6.151751357419332504E+09 
1.37200E+04	6.278907263244369507E+09 
1.37400E+04	6.419014112418931961E+09 
1.37600E+04	6.567825524894519806E+09 
1.37800E+04	6.711853481261160851E+09 
1.38000E+04	6.869036564564497948E+09 
1.38200E+04	7.040408333896776199E+09 
1.38400E+04	7.202885319650888443E+09 
1.38600E+04	7.379371684353015900E+09 
1.38800E+04	7.577086357148911476E+09 
1.39000E+04	7.766462796269272804E+09 
1.39200E+04	7.965212375616551399E+09 
1.39400E+04	8.193872519941399574E+09 
1.39600E+04	8.413856992826440811E+09 
1.39800E+04	8.638665315043102264E+09 
1.40000E+04	8.903873875346509933E+09 
1.40200E+04	9.158971876190958023E+09 
1.40400E+04	9.414698711702249527E+09 
1.40600E+04	9.723530749630878448E+09 
1.40800E+04	1.002750164923631477E+10 
1.41000E+04	1.032074927334117699E+10 
1.41200E+04	1.068298833319744110E+10 
1.41400E+04	1.104140384445847321E+10 
1.41600E+04	1.138004898647970772E+10 
1.41800E+04	1.180863394570172501E+10 
1.42000E+04	1.224088513030049706E+10 
1.42200E+04	1.263546649533247185E+10 
1.42400E+04	1.314599772794173813E+10 
1.42600E+04	1.366549897479955101E+10 
1.42800E+04	1.412969561814514160E+10 
1.43000E+04	1.475804071329474831E+10 
1.43200E+04	1.538391097860552788E+10 
1.43400E+04	1.593326397599682999E+10 
1.43600E+04	1.671997299550695229E+10 
1.43800E+04	1.747056261521104050E+10 
1.44000E+04	1.814753708246189880E+10 
1.44200E+04	1.915477324161547089E+10 
1.44400E+04	2.004018262290313721E+10 
1.44600E+04	2.091129672920388412E+10 
1.44800E+04	2.224037043946111298E+10 
1.45000E+04	2.324582133583461380E+10 
1.45200E+04	2.447888774930138016E+10 
1.45400E+04	2.619611725732054520E+10 
1.45600E+04	2.733298686797080612E+10 
1.45800E+04	2.929081485125635147E+10 
1.46000E+04	3.128139562804095459E+10 
1.46200E+04	3.286575652731779099E+10 
1.46400E+04	3.597148983820313263E+10 
1.46600E+04	3.785487885407965851E+10 
1.46800E+04	4.130912464361025238E+10 
1.47000E+04	4.472050241203424072E+10 
1.47200E+04	4.806994593929061890E+10 
1.47400E+04	5.375958528235446930E+10 
1.47600E+04	5.758593472157308960E+10 
1.47800E+04	6.594624921584873199E+10 
1.48000E+04	7.210840442080667114E+10 
1.48200E+04	8.313427192118266296E+10 
1.48400E+04	9.779304652373849487E+10 
1.48600E+04	1.148366576490061951E+11 
1.48800E+04	1.454240202789758911E+11 
1.49000E+04	1.855901327009552612E+11 
1.49200E+04	1.985289904246539612E+11 
1.49400E+04	2.014033361384017334E+11 
1.49600E+04	2.017761373061630554E+11 
1.49800E+04	2.013052615201931458E+11 
1.50000E+04	2.004214150058966675E+11 
1.50200E+04	1.992711334521167297E+11 
1.50400E+04	1.980566390365834351E+11 
1.50600E+04	1.967168433491122742E+11 
1.50800E+04	1.953889895287568359E+11 
1.51000E+04	1.940339700766743774E+11 
1.51200E+04	1.926076252678027039E+11 
1.51400E+04	1.912229660431449280E+11 
1.51600E+04	1.897763323220296631E+11 
1.51800E+04	1.883751916372537231E+11 
1.52000E+04	1.869148047145063782E+11 
1.52200E+04	1.854992915894158020E+11 
1.52400E+04	1.840242165894824829E+11 
1.52600E+04	1.825911935299355469E+11 
1.52800E+04	1.810966795753248291E+11 
1.53000E+04	1.796403084601597900E+11 
1.53200E+04	1.781690077749085693E+11 
1.53400E+04	1.766313219050932007E+11 
1.53600E+04	1.751235543192619324E+11 
1.53800E+04	1.735450425840898438E+11 
1.54000E+04	1.719899385136988220E+11 
1.54200E+04	1.703587787682857056E+11 
1.54400E+04	1.687434234681133118E+11 
1.54600E+04	1.670455546339103088E+11 
1.54800E+04	1.653545284416867981E+11 
