#Energy[eV] Flux[ph/s/500mA/0.1%bW] 
100.00 1.4787696002886621E+12 
110.00 1.5759670047876599E+12 
120.00 1.6711026872300483E+12 
130.00 1.7622004603869326E+12 
140.00 1.8522379144154507E+12 
150.00 1.9392241714515740E+12 
160.00 2.0241493693136697E+12 
170.00 2.1079968443244326E+12 
180.00 2.1897648766773237E+12 
190.00 2.2694445749343135E+12 
200.00 2.3480002987567051E+12 
210.00 2.4253940608353887E+12 
220.00 2.5016212407537153E+12 
230.00 2.5756713901331797E+12 
240.00 2.6483263890835698E+12 
250.00 2.7206012421347310E+12 
260.00 2.7903086736081372E+12 
270.00 2.8578350484350996E+12 
280.00 2.9242082035907173E+12 
290.00 2.9824900177328672E+12 
300.00 3.0346151146755400E+12 
310.00 2.9885551044387822E+12 
320.00 3.0604393579944316E+12 
330.00 3.1198997054500713E+12 
340.00 3.1776469523527935E+12 
350.00 3.2397753469558936E+12 
360.00 3.3014998448386729E+12 
370.00 3.3642341690245322E+12 
380.00 3.4281883243818940E+12 
390.00 3.4916272459676592E+12 
400.00 3.5549031562514878E+12 
410.00 3.6181905660844194E+12 
420.00 3.6801997195854404E+12 
430.00 3.7420402251498740E+12 
440.00 3.8028269476613530E+12 
450.00 3.8632270984192095E+12 
460.00 3.9211300586826675E+12 
470.00 3.9790904206986274E+12 
480.00 4.0359151888065938E+12 
490.00 4.0854974399386567E+12 
500.00 4.1356615501353755E+12 
510.00 4.2019470158787983E+12 
520.00 4.2550456134746504E+12 
530.00 4.3189060189039756E+12 
540.00 4.3787563146699844E+12 
550.00 4.4376494958560166E+12 
560.00 4.4939077281927656E+12 
570.00 4.5503735768056621E+12 
580.00 4.6060814913263525E+12 
590.00 4.6611166641103125E+12 
600.00 4.7152191199517480E+12 
610.00 4.7685474049604062E+12 
620.00 4.8203157673536865E+12 
630.00 4.8682555308605654E+12 
640.00 4.9251768605408418E+12 
650.00 4.9784576639479072E+12 
660.00 5.0319099334324053E+12 
670.00 5.0844679787761729E+12 
680.00 5.1368432696926553E+12 
690.00 5.1884115481671953E+12 
700.00 5.2401299429390947E+12 
710.00 5.2910386464358809E+12 
720.00 5.3416313311121572E+12 
730.00 5.3918047531586914E+12 
740.00 5.4421077018673516E+12 
750.00 5.4925408190241055E+12 
760.00 5.5421442803235850E+12 
770.00 5.5914483897960996E+12 
780.00 5.6395096693374443E+12 
790.00 5.6886431916723770E+12 
800.00 5.7369283446511631E+12 
810.00 5.7853268120904961E+12 
820.00 5.8336753420223877E+12 
830.00 5.8806526988928672E+12 
840.00 5.9286895001870947E+12 
850.00 5.9758634131680107E+12 
860.00 6.0231372212422031E+12 
870.00 6.0705119827244893E+12 
880.00 6.1166659615496084E+12 
890.00 6.1626705781041777E+12 
900.00 6.2087628774230107E+12 
910.00 6.2549440038484492E+12 
920.00 6.3012150705165938E+12 
930.00 6.3466139456567031E+12 
940.00 6.3927339731671523E+12 
950.00 6.4377189780922412E+12 
960.00 6.4818174884380352E+12 
970.00 6.5269575443923887E+12 
980.00 6.5721767404911465E+12 
990.00 6.6165121495572656E+12 
1000.00 6.6608817291687803E+12 
1010.00 6.7049984250006875E+12 
1020.00 6.7491898994879229E+12 
1030.00 6.7924927849129834E+12 
1040.00 6.8368368619922012E+12 
1050.00 6.8802941522521104E+12 
1060.00 6.9238300826733203E+12 
1070.00 6.9673106800744463E+12 
1080.00 7.0104168249683535E+12 
1090.00 7.0526242674593262E+12 
1100.00 7.0958642625457969E+12 
1110.00 7.1382072924341006E+12 
1120.00 7.1806194911561768E+12 
1130.00 7.2231017978948027E+12 
1140.00 7.2656551442363691E+12 
1150.00 7.3078216362978955E+12 
1160.00 7.3490106037543486E+12 
1170.00 7.3902590542897305E+12 
1180.00 7.4315678352895703E+12 
1190.00 7.4729377903683584E+12 
1200.00 7.5143697592774072E+12 
1210.00 7.5558645778134229E+12 
1220.00 7.5974230777278379E+12 
1230.00 7.6377555392113574E+12 
1240.00 7.6781430738266494E+12 
1250.00 7.7185896805448867E+12 
1260.00 7.7590961851766230E+12 
1270.00 7.7996634117025918E+12 
1280.00 7.8402921821972285E+12 
1290.00 7.8809833167522578E+12 
1300.00 7.9207701520089072E+12 
1310.00 7.9602868686802129E+12 
1320.00 7.9996068735432324E+12 
1330.00 8.0399459721821709E+12 
1340.00 8.0784016933007529E+12 
1350.00 8.1178779784581289E+12 
1360.00 8.1574078277033232E+12 
1370.00 8.1960238661509912E+12 
1380.00 8.2356629431525127E+12 
1390.00 8.2743894549379580E+12 
1400.00 8.3128514576117383E+12 
1410.00 8.3511195938379990E+12 
1420.00 8.3894316905284102E+12 
1430.00 8.4277883664965557E+12 
1440.00 8.4652215699446318E+12 
1450.00 8.5036691887931250E+12 
1460.00 8.5411944161733496E+12 
1470.00 8.5797354470234912E+12 
1480.00 8.6173551529555293E+12 
1490.00 8.6550229736487012E+12 
1500.00 8.6922512157197393E+12 
1510.00 8.7285230518656250E+12 
1520.00 8.7658019864255000E+12 
1530.00 8.8031193951250332E+12 
1540.00 8.8395064484480234E+12 
1550.00 8.8759328965980762E+12 
1560.00 8.9133687282521680E+12 
1570.00 8.9498755721923359E+12 
1580.00 8.9864233545711992E+12 
1590.00 9.0230125911658984E+12 
1600.00 9.0583578750548008E+12 
1610.00 9.0945488806099473E+12 
1620.00 9.1307723864667324E+12 
1630.00 9.1660589772442324E+12 
1640.00 9.2013788549090664E+12 
1650.00 9.2377023872386406E+12 
1660.00 9.2730901744605352E+12 
1670.00 9.3085125411189238E+12 
1680.00 9.3439699196873828E+12 
1690.00 9.3794627439874863E+12 
1700.00 9.4140212316039395E+12 
1710.00 9.4492914576515156E+12 
1720.00 9.4834773639327559E+12 
1730.00 9.5186614922134902E+12 
1740.00 9.5529036236967734E+12 
1750.00 9.5871743920107480E+12 
1760.00 9.6214741560878164E+12 
1770.00 9.6558032761418086E+12 
1780.00 9.6901621136716992E+12 
1790.00 9.7245510314654102E+12 
1800.00 9.7541175987782676E+12 
1810.00 9.7934205654630508E+12 
1820.00 9.8230486288254707E+12 
1830.00 9.8620350362038535E+12 
1840.00 9.8913060610611523E+12 
1850.00 9.9303080858646660E+12 
1860.00 9.9596274842912754E+12 
1870.00 9.9986788606039844E+12 
1880.00 1.0028047817810752E+13 
1890.00 1.0057441871023098E+13 
1900.00 1.0096569537110287E+13 
1910.00 1.0126014921653744E+13 
1920.00 1.0155486259303268E+13 
1930.00 1.0194693061817781E+13 
1940.00 1.0224217524391906E+13 
1950.00 1.0253658457969730E+13 
1960.00 1.0292634187003127E+13 
1970.00 1.0321922105396418E+13 
1980.00 1.0351232368194277E+13 
1990.00 1.0390275765797777E+13 
2000.00 1.0419631684461471E+13 
2010.00 1.0449010728085723E+13 
2020.00 1.0478413152374945E+13 
2030.00 1.0517550710657867E+13 
2040.00 1.0547000958642658E+13 
2050.00 1.0576475381765539E+13 
2060.00 1.0605974240327016E+13 
2070.00 1.0645210579149381E+13 
2080.00 1.0674759467638295E+13 
2090.00 1.0704029896862695E+13 
2100.00 1.0733296969297135E+13 
2110.00 1.0762584764073188E+13 
2120.00 1.0801607198462041E+13 
2130.00 1.0830937333982729E+13 
2140.00 1.0860288939119131E+13 
2150.00 1.0889662259473713E+13 
2160.00 1.0919057541930699E+13 
2170.00 1.0948475034663943E+13 
2180.00 1.0987629956160068E+13 
2190.00 1.1017092899621180E+13 
2200.00 1.1046578824430076E+13 
2210.00 1.1076087984073723E+13 
2220.00 1.1105620633369416E+13 
2230.00 1.1134916172881695E+13 
2240.00 1.1164033167972988E+13 
2250.00 1.1193167458965189E+13 
2260.00 1.1222319266569598E+13 
2270.00 1.1251488812888734E+13 
2280.00 1.1280676321426686E+13 
2290.00 1.1319598410585043E+13 
2300.00 1.1348822583937717E+13 
2310.00 1.1378065414139146E+13 
2320.00 1.1407327130480613E+13 
2330.00 1.1436607963708510E+13 
2340.00 1.1465908146035191E+13 
2350.00 1.1495227911149957E+13 
2360.00 1.1524567494230119E+13 
2370.00 1.1553927131952148E+13 
2380.00 1.1583196535979703E+13 
2390.00 1.1612094553012623E+13 
2400.00 1.1641006189429510E+13 
2410.00 1.1660214805946357E+13 
2420.00 1.1689154477246127E+13 
2430.00 1.1718108379442799E+13 
2440.00 1.1747076723897129E+13 
2450.00 1.1776059723685410E+13 
2460.00 1.1805057593615615E+13 
2470.00 1.1834070550243680E+13 
2480.00 1.1863098811889922E+13 
2490.00 1.1892142598655701E+13 
2500.00 1.1921202132440209E+13 
2510.00 1.1950277636957479E+13 
2520.00 1.1969653709742389E+13 
2530.00 1.1998761865571504E+13 
2540.00 1.2027886660744650E+13 
2550.00 1.2056489009926777E+13 
2560.00 1.2084977812361584E+13 
2570.00 1.2113474666114188E+13 
2580.00 1.2141979763878850E+13 
2590.00 1.2160780217429645E+13 
2600.00 1.2189302881917748E+13 
2610.00 1.2217834373189906E+13 
2620.00 1.2246374893318783E+13 
2630.00 1.2274924646824590E+13 
2640.00 1.2293773119444934E+13 
2650.00 1.2322342406781195E+13 
2660.00 1.2350921546237682E+13 
2670.00 1.2379510752363594E+13 
2680.00 1.2408110242326076E+13 
2690.00 1.2427011633107697E+13 
2700.00 1.2455632746267730E+13 
2710.00 1.2484264800491977E+13 
2720.00 1.2512468940291879E+13 
2730.00 1.2529811031027418E+13 
2740.00 1.2556841795733551E+13 
2750.00 1.2583853984114504E+13 
2760.00 1.2601146805598961E+13 
2770.00 1.2628123056304275E+13 
2780.00 1.2655080316778096E+13 
2790.00 1.2682018443443734E+13 
2800.00 1.2699243212236211E+13 
2810.00 1.2726144294927682E+13 
2820.00 1.2753025810073734E+13 
2830.00 1.2770198533966357E+13 
2840.00 1.2797042144101432E+13 
2850.00 1.2823865737353297E+13 
2860.00 1.2840985156964777E+13 
2870.00 1.2867769952863381E+13 
2880.00 1.2884853684961996E+13 
2890.00 1.2911599075680326E+13 
2900.00 1.2938323666652461E+13 
2910.00 1.2953290189783119E+13 
2920.00 1.2975948959294277E+13 
2930.00 1.2998427117359939E+13 
2940.00 1.3011058837954631E+13 
2950.00 1.3026806123772439E+13 
2960.00 1.3028166339175145E+13 
2970.00 1.3037923885193051E+13 
2980.00 1.3036703486082045E+13 
2990.00 1.3034277073607770E+13 
3000.00 1.2944606471882268E+13 
3010.00 1.2322697498386994E+13 
3020.00 1.1953229148103246E+13 
3030.00 1.2023551524784453E+13 
3040.00 1.2100537084894016E+13 
3050.00 1.2166709008789340E+13 
3060.00 1.2239833882047832E+13 
3070.00 1.2284197505241742E+13 
3080.00 1.2325599137564740E+13 
3090.00 1.2351338271300238E+13 
3100.00 1.2382918188024623E+13 
3110.00 1.2396906066656760E+13 
3120.00 1.2410402896993762E+13 
3130.00 1.2414770349824057E+13 
3140.00 1.2352195668236539E+13 
3150.00 1.2226788719168561E+13 
3160.00 1.2118330473664555E+13 
3170.00 1.2145533738563836E+13 
3180.00 1.2209275996014916E+13 
3190.00 1.2263509011414100E+13 
3200.00 1.2325624705964674E+13 
3210.00 1.2376179119049205E+13 
3220.00 1.2416227135658131E+13 
3230.00 1.2447491693414357E+13 
3240.00 1.2478718956487807E+13 
3250.00 1.2518693740589699E+13 
3260.00 1.2549855260183406E+13 
3270.00 1.2589782834565307E+13 
3280.00 1.2620877616624924E+13 
3290.00 1.2651934019038508E+13 
3300.00 1.2691784037567877E+13 
3310.00 1.2722772525736422E+13 
3320.00 1.2762202332546266E+13 
3330.00 1.2786929489145303E+13 
3340.00 1.2811700802302383E+13 
3350.00 1.2841260083970670E+13 
3360.00 1.2859628412684404E+13 
3370.00 1.2878048691752578E+13 
3380.00 1.2905384932866766E+13 
3390.00 1.2923910932118555E+13 
3400.00 1.2925209602271818E+13 
3410.00 1.2913971119525879E+13 
3420.00 1.2871936005757506E+13 
3430.00 1.2841585723985971E+13 
3440.00 1.2886080285006320E+13 
3450.00 1.2921687403262553E+13 
3460.00 1.2957161852357463E+13 
3470.00 1.3001307293252523E+13 
3480.00 1.3036531782851703E+13 
3490.00 1.3064570702137451E+13 
3500.00 1.3092515660536514E+13 
3510.00 1.3129301342528266E+13 
3520.00 1.3157263694620672E+13 
3530.00 1.3185230813788285E+13 
3540.00 1.3222058438530627E+13 
3550.00 1.3249383154287398E+13 
3560.00 1.3273157067746785E+13 
3570.00 1.3296966574923986E+13 
3580.00 1.3320811509857494E+13 
3590.00 1.3353570410985111E+13 
3600.00 1.3377489797845754E+13 
3610.00 1.3401444130929852E+13 
3620.00 1.3425433246821635E+13 
3630.00 1.3458352126300807E+13 
3640.00 1.3482414460283178E+13 
3650.00 1.3506511102672242E+13 
3660.00 1.3530641892677898E+13 
3670.00 1.3554806670215350E+13 
3680.00 1.3587921234724064E+13 
3690.00 1.3612157706865170E+13 
3700.00 1.3636427701501939E+13 
3710.00 1.3660731061258619E+13 
3720.00 1.3685067629482027E+13 
3730.00 1.3709437250244303E+13 
3740.00 1.3742781070278051E+13 
3750.00 1.3767220591753994E+13 
3760.00 1.3791692712458084E+13 
3770.00 1.3816197279249930E+13 
3780.00 1.3840734139727279E+13 
3790.00 1.3865303142227926E+13 
3800.00 1.3896903399268555E+13 
3810.00 1.3918612343606889E+13 
3820.00 1.3940357280401355E+13 
3830.00 1.3962138201743600E+13 
3840.00 1.3983955099473514E+13 
3850.00 1.4005807965181848E+13 
3860.00 1.4027696790212742E+13 
3870.00 1.4049621565666340E+13 
3880.00 1.4071582282401254E+13 
3890.00 1.4093578931037193E+13 
3900.00 1.4124602337308939E+13 
3910.00 1.4146673420416262E+13 
3920.00 1.4168780422077861E+13 
3930.00 1.4190923331914395E+13 
3940.00 1.4213102139320201E+13 
3950.00 1.4235316833465756E+13 
3960.00 1.4257567403300137E+13 
3970.00 1.4279853837553418E+13 
3980.00 1.4302176124739072E+13 
3990.00 1.4324534253156406E+13 
4000.00 1.4346928210892912E+13 
4010.00 1.4369357985826650E+13 
4020.00 1.4391823565628596E+13 
4030.00 1.4414324937765002E+13 
4040.00 1.4436862089499713E+13 
4050.00 1.4459435007896486E+13 
4060.00 1.4481133245047797E+13 
4070.00 1.4501945001914287E+13 
4080.00 1.4522788522580809E+13 
4090.00 1.4543663851069699E+13 
4100.00 1.4564571031237449E+13 
4110.00 1.4585510106775334E+13 
4120.00 1.4606481121210102E+13 
4130.00 1.4627484117904580E+13 
4140.00 1.4648519140058359E+13 
4150.00 1.4669586230708453E+13 
4160.00 1.4690685432729938E+13 
4170.00 1.4711816788836621E+13 
4180.00 1.4732980341581654E+13 
4190.00 1.4754176133358236E+13 
4200.00 1.4775404206400223E+13 
4210.00 1.4796664602782811E+13 
4220.00 1.4817957364423143E+13 
4230.00 1.4839282533080975E+13 
4240.00 1.4860640150359355E+13 
4250.00 1.4882030257705205E+13 
4260.00 1.4894382018201629E+13 
4270.00 1.4915835215143893E+13 
4280.00 1.4937321010654545E+13 
4290.00 1.4958839445592086E+13 
4300.00 1.4980390560662092E+13 
4310.00 1.5001974396417848E+13 
4320.00 1.5023590993261004E+13 
4330.00 1.5045240391442178E+13 
4340.00 1.5066202618223787E+13 
4350.00 1.5086523317487922E+13 
4360.00 1.5097781890341258E+13 
4370.00 1.5118156223893344E+13 
4380.00 1.5138558110798879E+13 
4390.00 1.5158987610716721E+13 
4400.00 1.5179444783251389E+13 
4410.00 1.5199929687953377E+13 
4420.00 1.5220442384319387E+13 
4430.00 1.5231883837504973E+13 
4440.00 1.5252450882076719E+13 
4450.00 1.5273045883191109E+13 
4460.00 1.5293668900144453E+13 
4470.00 1.5314319992180590E+13 
4480.00 1.5334999218491086E+13 
4490.00 1.5346598864408752E+13 
4500.00 1.5367333043670162E+13 
4510.00 1.5388095521250998E+13 
4520.00 1.5408886356148439E+13 
4530.00 1.5429705607308654E+13 
4540.00 1.5441437962928838E+13 
4550.00 1.5462312664311916E+13 
4560.00 1.5483215945334107E+13 
4570.00 1.5504147864752141E+13 
4580.00 1.5525108481273016E+13 
4590.00 1.5536974556691865E+13 
4600.00 1.5557991118726998E+13 
4610.00 1.5579036540590432E+13 
4620.00 1.5600110880804607E+13 
4630.00 1.5621214197843480E+13 
4640.00 1.5632508833257369E+13 
4650.00 1.5652501889154811E+13 
4660.00 1.5672518516141342E+13 
4670.00 1.5692558776361018E+13 
4680.00 1.5703487486197209E+13 
4690.00 1.5723574144073301E+13 
4700.00 1.5743684610329822E+13 
4710.00 1.5754680501404098E+13 
4720.00 1.5774837681656568E+13 
4730.00 1.5795018845587283E+13 
4740.00 1.5815224055448055E+13 
4750.00 1.5826310502043234E+13 
4760.00 1.5846562855779672E+13 
4770.00 1.5866839430950229E+13 
4780.00 1.5877993979976463E+13 
4790.00 1.5898318016160871E+13 
4800.00 1.5918666449447506E+13 
4810.00 1.5939039342206898E+13 
4820.00 1.5950285703640225E+13 
4830.00 1.5970706488382309E+13 
4840.00 1.5991151908489652E+13 
4850.00 1.6002467296830250E+13 
4860.00 1.6022960926916793E+13 
4870.00 1.6043479368438627E+13 
4880.00 1.6054864176094422E+13 
4890.00 1.6075431145980711E+13 
4900.00 1.6096023103555594E+13 
4910.00 1.6107477723594982E+13 
4920.00 1.6128118528319193E+13 
4930.00 1.6148784497174287E+13 
4940.00 1.6160309323340773E+13 
4950.00 1.6181024458540535E+13 
4960.00 1.6201132341752590E+13 
4970.00 1.6211725967016639E+13 
4980.00 1.6231508483690887E+13 
4990.00 1.6242140058854248E+13 
5000.00 1.6261962253883846E+13 
5010.00 1.6281804783361166E+13 
5020.00 1.6292494004112051E+13 
5030.00 1.6312376514356551E+13 
5040.00 1.6323104086893289E+13 
5050.00 1.6343026773595947E+13 
5060.00 1.6362970068090404E+13 
5070.00 1.6373755914717709E+13 
5080.00 1.6393739689493420E+13 
5090.00 1.6404564292114018E+13 
5100.00 1.6424588743811961E+13 
5110.00 1.6444634077843018E+13 
5120.00 1.6455517586584287E+13 
5130.00 1.6475603902806008E+13 
5140.00 1.6486526574119188E+13 
5150.00 1.6506654070144959E+13 
5160.00 1.6517616063502680E+13 
5170.00 1.6537784937340439E+13 
5180.00 1.6557975078019725E+13 
5190.00 1.6568996862660424E+13 
5200.00 1.6589228688500156E+13 
5210.00 1.6600290205167018E+13 
5220.00 1.6620563915179045E+13 
5230.00 1.6631665324723176E+13 
5240.00 1.6651981118326453E+13 
5250.00 1.6663122581999416E+13 
5260.00 1.6683480659023605E+13 
5270.00 1.6694662338480664E+13 
5280.00 1.6715062899169646E+13 
5290.00 1.6726284956472955E+13 
5300.00 1.6746335519053807E+13 
5310.00 1.6756729085850902E+13 
5320.00 1.6776341218930316E+13 
5330.00 1.6786767415789111E+13 
5340.00 1.6806413593184867E+13 
5350.00 1.6816872565395027E+13 
5360.00 1.6836552964810262E+13 
5370.00 1.6847044858092613E+13 
5380.00 1.6866759657681857E+13 
5390.00 1.6877284618191771E+13 
5400.00 1.6897033996564570E+13 
5410.00 1.6907592170895273E+13 
5420.00 1.6927376307119914E+13 
5430.00 1.6937967842305820E+13 
5440.00 1.6957786915913074E+13 
5450.00 1.6968411959433137E+13 
5460.00 1.6988266150419941E+13 
5470.00 1.6998924850201086E+13 
5480.00 1.7018814339034330E+13 
5490.00 1.7029506843454760E+13 
5500.00 1.7040215901987980E+13 
5510.00 1.7060158268967717E+13 
5520.00 1.7070901347469475E+13 
5530.00 1.7090879457449189E+13 
5540.00 1.7101656705435561E+13 
5550.00 1.7121670740551285E+13 
5560.00 1.7132482308001584E+13 
5570.00 1.7143310659236055E+13 
5580.00 1.7163378488236553E+13 
5590.00 1.7174241376668990E+13 
5600.00 1.7194345580170477E+13 
5610.00 1.7205243156947791E+13 
5620.00 1.7216157682101766E+13 
5630.00 1.7236316335546141E+13 
5640.00 1.7247265768532135E+13 
5650.00 1.7267461248917061E+13 
5660.00 1.7278445742071033E+13 
5670.00 1.7288860315767287E+13 
5680.00 1.7308465162497158E+13 
5690.00 1.7318853301924686E+13 
5700.00 1.7338487750265291E+13 
5710.00 1.7348904317755037E+13 
5720.00 1.7359334825793629E+13 
5730.00 1.7379013630116072E+13 
5740.00 1.7389472739654107E+13 
5750.00 1.7399945866538234E+13 
5760.00 1.7419669338201586E+13 
5770.00 1.7430171240822832E+13 
5780.00 1.7440687237982332E+13 
5790.00 1.7460455689590768E+13 
5800.00 1.7471000637534350E+13 
5810.00 1.7481559757607391E+13 
5820.00 1.7501373503024889E+13 
5830.00 1.7511961749747232E+13 
5840.00 1.7522564246593525E+13 
5850.00 1.7542423600958578E+13 
5860.00 1.7553055401146646E+13 
5870.00 1.7563701529860678E+13 
5880.00 1.7583606809601168E+13 
5890.00 1.7594282419185781E+13 
5900.00 1.7604972436110223E+13 
5910.00 1.7624923958958387E+13 
5920.00 1.7635643635127664E+13 
5930.00 1.7646377797866801E+13 
5940.00 1.7666375882874332E+13 
5950.00 1.7677139884087254E+13 
5960.00 1.7687918451520586E+13 
5970.00 1.7707963419073781E+13 
5980.00 1.7718772005073828E+13 
5990.00 1.7729595237369758E+13 
6000.00 1.7740433140482676E+13 
6010.00 1.7760540841033797E+13 
6020.00 1.7771408999663445E+13 
6030.00 1.7782291909756840E+13 
6040.00 1.7793189596023883E+13 
6050.00 1.7813360586644891E+13 
6060.00 1.7823753287615531E+13 
6070.00 1.7834067661928473E+13 
6080.00 1.7844394596706695E+13 
6090.00 1.7863994869737633E+13 
6100.00 1.7874347561998887E+13 
6110.00 1.7884712891559512E+13 
6120.00 1.7895090882142207E+13 
6130.00 1.7914744610573281E+13 
6140.00 1.7925148584181328E+13 
6150.00 1.7935565296235762E+13 
6160.00 1.7945994770653301E+13 
6170.00 1.7965702478783438E+13 
6180.00 1.7976158163394406E+13 
6190.00 1.7986626688391309E+13 
6200.00 1.7997108077887539E+13 
6210.00 1.8016870293439074E+13 
6220.00 1.8027378121945766E+13 
6230.00 1.8037898893581480E+13 
6240.00 1.8048432632659055E+13 
6250.00 1.8058979363540789E+13 
6260.00 1.8078810295405484E+13 
6270.00 1.8089383750669855E+13 
6280.00 1.8099970277136113E+13 
6290.00 1.8110569899369414E+13 
6300.00 1.8121182641985195E+13 
6310.00 1.8141083112017488E+13 
6320.00 1.8151722867031012E+13 
6330.00 1.8162375822606141E+13 
6340.00 1.8173042003564656E+13 
6350.00 1.8183721434779461E+13 
