# Energy [keV], Flux[ph/s/0.1%/100mA] - BC FE acceptance: 1.23 x 0.39 mrad²
1.000000e-01 2.750000e+11
3.500750e-01 6.407000e+11
6.001500e-01 9.233000e+11
8.502250e-01 1.169000e+12
1.100300e+00 1.392000e+12
1.350380e+00 1.598000e+12
1.600450e+00 1.791000e+12
1.850530e+00 1.973000e+12
2.100600e+00 2.146000e+12
2.350680e+00 2.311000e+12
2.600750e+00 2.469000e+12
2.850830e+00 2.620000e+12
3.100900e+00 2.765000e+12
3.350980e+00 2.906000e+12
3.601050e+00 3.041000e+12
3.851130e+00 3.171000e+12
4.101200e+00 3.297000e+12
4.351280e+00 3.419000e+12
4.601350e+00 3.537000e+12
4.851430e+00 3.651000e+12
5.101500e+00 3.761000e+12
5.351580e+00 3.869000e+12
5.601650e+00 3.972000e+12
5.851730e+00 4.073000e+12
6.101800e+00 4.171000e+12
6.351880e+00 4.266000e+12
6.601950e+00 4.358000e+12
6.852030e+00 4.447000e+12
7.102100e+00 4.534000e+12
7.352180e+00 4.618000e+12
7.602250e+00 4.700000e+12
7.852330e+00 4.779000e+12
8.102400e+00 4.856000e+12
8.352480e+00 4.931000e+12
8.602550e+00 5.003000e+12
8.852630e+00 5.074000e+12
9.102700e+00 5.142000e+12
9.352780e+00 5.208000e+12
9.602850e+00 5.273000e+12
9.852930e+00 5.335000e+12
1.010300e+01 5.396000e+12
1.035310e+01 5.455000e+12
1.060320e+01 5.512000e+12
1.085320e+01 5.568000e+12
1.110330e+01 5.621000e+12
1.135340e+01 5.673000e+12
1.160350e+01 5.724000e+12
1.185350e+01 5.773000e+12
1.210360e+01 5.820000e+12
1.235370e+01 5.866000e+12
1.260380e+01 5.911000e+12
1.285380e+01 5.954000e+12
1.310390e+01 5.996000e+12
1.335400e+01 6.036000e+12
1.360410e+01 6.075000e+12
1.385410e+01 6.113000e+12
1.410420e+01 6.149000e+12
1.435430e+01 6.184000e+12
1.460440e+01 6.218000e+12
1.485440e+01 6.251000e+12
1.510450e+01 6.283000e+12
1.535460e+01 6.313000e+12
1.560470e+01 6.343000e+12
1.585470e+01 6.371000e+12
1.610480e+01 6.398000e+12
1.635490e+01 6.425000e+12
1.660500e+01 6.450000e+12
1.685500e+01 6.474000e+12
1.710510e+01 6.497000e+12
1.735520e+01 6.520000e+12
1.760530e+01 6.541000e+12
1.785530e+01 6.562000e+12
1.810540e+01 6.581000e+12
1.835550e+01 6.600000e+12
1.860560e+01 6.618000e+12
1.885560e+01 6.635000e+12
1.910570e+01 6.651000e+12
1.935580e+01 6.667000e+12
1.960590e+01 6.681000e+12
1.985590e+01 6.695000e+12
2.010600e+01 6.708000e+12
2.035610e+01 6.721000e+12
2.060620e+01 6.732000e+12
2.085620e+01 6.743000e+12
2.110630e+01 6.754000e+12
2.135640e+01 6.763000e+12
2.160650e+01 6.772000e+12
2.185650e+01 6.780000e+12
2.210660e+01 6.788000e+12
2.235670e+01 6.795000e+12
2.260680e+01 6.801000e+12
2.285680e+01 6.807000e+12
2.310690e+01 6.812000e+12
2.335700e+01 6.817000e+12
2.360710e+01 6.821000e+12
2.385710e+01 6.825000e+12
2.410720e+01 6.828000e+12
2.435730e+01 6.830000e+12
2.460740e+01 6.832000e+12
2.485740e+01 6.834000e+12
2.510750e+01 6.835000e+12
2.535760e+01 6.835000e+12
2.560770e+01 6.835000e+12
2.585770e+01 6.835000e+12
2.610780e+01 6.834000e+12
2.635790e+01 6.833000e+12
2.660800e+01 6.831000e+12
2.685800e+01 6.829000e+12
2.710810e+01 6.826000e+12
2.735820e+01 6.823000e+12
2.760830e+01 6.820000e+12
2.785830e+01 6.816000e+12
2.810840e+01 6.812000e+12
2.835850e+01 6.808000e+12
2.860860e+01 6.803000e+12
2.885860e+01 6.798000e+12
2.910870e+01 6.792000e+12
2.935880e+01 6.786000e+12
2.960890e+01 6.780000e+12
2.985890e+01 6.773000e+12
3.010900e+01 6.766000e+12
3.035910e+01 6.759000e+12
3.060920e+01 6.752000e+12
3.085920e+01 6.744000e+12
3.110930e+01 6.736000e+12
3.135940e+01 6.728000e+12
3.160950e+01 6.719000e+12
3.185950e+01 6.710000e+12
3.210960e+01 6.701000e+12
3.235970e+01 6.691000e+12
3.260980e+01 6.682000e+12
3.285980e+01 6.672000e+12
3.310990e+01 6.662000e+12
3.336000e+01 6.651000e+12
3.361010e+01 6.641000e+12
3.386010e+01 6.630000e+12
3.411020e+01 6.619000e+12
3.436030e+01 6.608000e+12
3.461040e+01 6.596000e+12
3.486040e+01 6.584000e+12
3.511050e+01 6.572000e+12
3.536060e+01 6.560000e+12
3.561070e+01 6.548000e+12
3.586070e+01 6.536000e+12
3.611080e+01 6.523000e+12
3.636090e+01 6.510000e+12
3.661100e+01 6.497000e+12
3.686100e+01 6.484000e+12
3.711110e+01 6.471000e+12
3.736120e+01 6.457000e+12
3.761130e+01 6.444000e+12
3.786130e+01 6.430000e+12
3.811140e+01 6.416000e+12
3.836150e+01 6.402000e+12
3.861160e+01 6.388000e+12
3.886160e+01 6.373000e+12
3.911170e+01 6.359000e+12
3.936180e+01 6.344000e+12
3.961190e+01 6.330000e+12
3.986190e+01 6.315000e+12
4.011200e+01 6.300000e+12
4.036210e+01 6.285000e+12
4.061220e+01 6.270000e+12
4.086220e+01 6.254000e+12
4.111230e+01 6.239000e+12
4.136240e+01 6.223000e+12
4.161250e+01 6.208000e+12
4.186250e+01 6.192000e+12
4.211260e+01 6.176000e+12
4.236270e+01 6.160000e+12
4.261280e+01 6.144000e+12
4.286280e+01 6.128000e+12
4.311290e+01 6.112000e+12
4.336300e+01 6.096000e+12
4.361310e+01 6.080000e+12
4.386310e+01 6.063000e+12
4.411320e+01 6.047000e+12
4.436330e+01 6.031000e+12
4.461340e+01 6.014000e+12
4.486340e+01 5.997000e+12
4.511350e+01 5.981000e+12
4.536360e+01 5.964000e+12
4.561370e+01 5.947000e+12
4.586370e+01 5.930000e+12
4.611380e+01 5.913000e+12
4.636390e+01 5.896000e+12
4.661400e+01 5.879000e+12
4.686400e+01 5.862000e+12
4.711410e+01 5.845000e+12
4.736420e+01 5.828000e+12
4.761430e+01 5.811000e+12
4.786430e+01 5.794000e+12
4.811440e+01 5.777000e+12
4.836450e+01 5.759000e+12
4.861460e+01 5.742000e+12
4.886460e+01 5.725000e+12
4.911470e+01 5.707000e+12
4.936480e+01 5.690000e+12
4.961490e+01 5.672000e+12
4.986490e+01 5.655000e+12
5.011500e+01 5.637000e+12
5.036510e+01 5.620000e+12
5.061520e+01 5.602000e+12
5.086520e+01 5.585000e+12
5.111530e+01 5.567000e+12
5.136540e+01 5.550000e+12
5.161550e+01 5.532000e+12
5.186550e+01 5.515000e+12
5.211560e+01 5.497000e+12
5.236570e+01 5.479000e+12
5.261580e+01 5.462000e+12
5.286580e+01 5.444000e+12
5.311590e+01 5.426000e+12
5.336600e+01 5.409000e+12
5.361610e+01 5.391000e+12
5.386610e+01 5.373000e+12
5.411620e+01 5.356000e+12
5.436630e+01 5.338000e+12
5.461640e+01 5.320000e+12
5.486640e+01 5.303000e+12
5.511650e+01 5.285000e+12
5.536660e+01 5.267000e+12
5.561670e+01 5.250000e+12
5.586670e+01 5.232000e+12
5.611680e+01 5.214000e+12
5.636690e+01 5.197000e+12
5.661700e+01 5.179000e+12
5.686700e+01 5.162000e+12
5.711710e+01 5.144000e+12
5.736720e+01 5.126000e+12
5.761730e+01 5.109000e+12
5.786730e+01 5.091000e+12
5.811740e+01 5.074000e+12
5.836750e+01 5.056000e+12
5.861760e+01 5.039000e+12
5.886760e+01 5.021000e+12
5.911770e+01 5.004000e+12
5.936780e+01 4.986000e+12
5.961790e+01 4.969000e+12
5.986790e+01 4.951000e+12
6.011800e+01 4.934000e+12
6.036810e+01 4.916000e+12
6.061820e+01 4.899000e+12
6.086820e+01 4.882000e+12
6.111830e+01 4.864000e+12
6.136840e+01 4.847000e+12
6.161850e+01 4.830000e+12
6.186850e+01 4.812000e+12
6.211860e+01 4.795000e+12
6.236870e+01 4.778000e+12
6.261880e+01 4.761000e+12
6.286880e+01 4.744000e+12
6.311890e+01 4.726000e+12
6.336900e+01 4.709000e+12
6.361910e+01 4.692000e+12
6.386910e+01 4.675000e+12
6.411920e+01 4.658000e+12
6.436930e+01 4.641000e+12
6.461940e+01 4.624000e+12
6.486940e+01 4.607000e+12
6.511950e+01 4.590000e+12
6.536960e+01 4.574000e+12
6.561970e+01 4.557000e+12
6.586970e+01 4.540000e+12
6.611980e+01 4.523000e+12
6.636990e+01 4.506000e+12
6.662000e+01 4.490000e+12
6.687000e+01 4.473000e+12
6.712010e+01 4.456000e+12
6.737020e+01 4.440000e+12
6.762030e+01 4.423000e+12
6.787030e+01 4.407000e+12
6.812040e+01 4.390000e+12
6.837050e+01 4.374000e+12
6.862060e+01 4.357000e+12
6.887060e+01 4.341000e+12
6.912070e+01 4.325000e+12
6.937080e+01 4.308000e+12
6.962090e+01 4.292000e+12
6.987090e+01 4.276000e+12
7.012100e+01 4.260000e+12
7.037110e+01 4.243000e+12
7.062120e+01 4.227000e+12
7.087120e+01 4.211000e+12
7.112130e+01 4.195000e+12
7.137140e+01 4.179000e+12
7.162150e+01 4.163000e+12
7.187150e+01 4.147000e+12
7.212160e+01 4.131000e+12
7.237170e+01 4.115000e+12
7.262180e+01 4.100000e+12
7.287180e+01 4.084000e+12
7.312190e+01 4.068000e+12
7.337200e+01 4.052000e+12
7.362210e+01 4.037000e+12
7.387210e+01 4.021000e+12
7.412220e+01 4.006000e+12
7.437230e+01 3.990000e+12
7.462240e+01 3.975000e+12
7.487240e+01 3.959000e+12
7.512250e+01 3.944000e+12
7.537260e+01 3.928000e+12
7.562270e+01 3.913000e+12
7.587270e+01 3.898000e+12
7.612280e+01 3.883000e+12
7.637290e+01 3.867000e+12
7.662300e+01 3.852000e+12
7.687300e+01 3.837000e+12
7.712310e+01 3.822000e+12
7.737320e+01 3.807000e+12
7.762330e+01 3.792000e+12
7.787330e+01 3.777000e+12
7.812340e+01 3.762000e+12
7.837350e+01 3.748000e+12
7.862360e+01 3.733000e+12
7.887360e+01 3.718000e+12
7.912370e+01 3.703000e+12
7.937380e+01 3.689000e+12
7.962390e+01 3.674000e+12
7.987390e+01 3.659000e+12
8.012400e+01 3.645000e+12
8.037410e+01 3.630000e+12
8.062420e+01 3.616000e+12
8.087420e+01 3.602000e+12
8.112430e+01 3.587000e+12
8.137440e+01 3.573000e+12
8.162450e+01 3.559000e+12
8.187450e+01 3.544000e+12
8.212460e+01 3.530000e+12
8.237470e+01 3.516000e+12
8.262480e+01 3.502000e+12
8.287480e+01 3.488000e+12
8.312490e+01 3.474000e+12
8.337500e+01 3.460000e+12
8.362510e+01 3.446000e+12
8.387510e+01 3.432000e+12
8.412520e+01 3.418000e+12
8.437530e+01 3.404000e+12
8.462540e+01 3.391000e+12
8.487540e+01 3.377000e+12
8.512550e+01 3.363000e+12
8.537560e+01 3.350000e+12
8.562570e+01 3.336000e+12
8.587570e+01 3.323000e+12
8.612580e+01 3.309000e+12
8.637590e+01 3.296000e+12
8.662600e+01 3.282000e+12
8.687600e+01 3.269000e+12
8.712610e+01 3.256000e+12
8.737620e+01 3.243000e+12
8.762630e+01 3.229000e+12
8.787630e+01 3.216000e+12
8.812640e+01 3.203000e+12
8.837650e+01 3.190000e+12
8.862660e+01 3.177000e+12
8.887660e+01 3.164000e+12
8.912670e+01 3.151000e+12
8.937680e+01 3.138000e+12
8.962690e+01 3.125000e+12
8.987690e+01 3.112000e+12
9.012700e+01 3.100000e+12
9.037710e+01 3.087000e+12
9.062720e+01 3.074000e+12
9.087720e+01 3.062000e+12
9.112730e+01 3.049000e+12
9.137740e+01 3.036000e+12
9.162750e+01 3.024000e+12
9.187750e+01 3.011000e+12
9.212760e+01 2.999000e+12
9.237770e+01 2.987000e+12
9.262780e+01 2.974000e+12
9.287780e+01 2.962000e+12
9.312790e+01 2.950000e+12
9.337800e+01 2.938000e+12
9.362810e+01 2.925000e+12
9.387810e+01 2.913000e+12
9.412820e+01 2.901000e+12
9.437830e+01 2.889000e+12
9.462840e+01 2.877000e+12
9.487840e+01 2.865000e+12
9.512850e+01 2.853000e+12
9.537860e+01 2.841000e+12
9.562870e+01 2.830000e+12
9.587870e+01 2.818000e+12
9.612880e+01 2.806000e+12
9.637890e+01 2.794000e+12
9.662900e+01 2.783000e+12
9.687900e+01 2.771000e+12
9.712910e+01 2.760000e+12
9.737920e+01 2.748000e+12
9.762930e+01 2.737000e+12
9.787930e+01 2.725000e+12
9.812940e+01 2.714000e+12
9.837950e+01 2.702000e+12
9.862960e+01 2.691000e+12
9.887960e+01 2.680000e+12
9.912970e+01 2.669000e+12
9.937980e+01 2.657000e+12
9.962990e+01 2.646000e+12
9.987990e+01 2.635000e+12
1.001300e+02 2.624000e+12
1.003800e+02 2.613000e+12
1.006300e+02 2.602000e+12
1.008800e+02 2.591000e+12
1.011300e+02 2.580000e+12
1.013800e+02 2.569000e+12
1.016300e+02 2.558000e+12
1.018810e+02 2.548000e+12
1.021310e+02 2.537000e+12
1.023810e+02 2.526000e+12
1.026310e+02 2.515000e+12
1.028810e+02 2.505000e+12
1.031310e+02 2.494000e+12
1.033810e+02 2.484000e+12
1.036310e+02 2.473000e+12
1.038810e+02 2.463000e+12
1.041310e+02 2.452000e+12
1.043810e+02 2.442000e+12
1.046310e+02 2.432000e+12
1.048810e+02 2.421000e+12
1.051320e+02 2.411000e+12
1.053820e+02 2.401000e+12
1.056320e+02 2.391000e+12
1.058820e+02 2.380000e+12
1.061320e+02 2.370000e+12
1.063820e+02 2.360000e+12
1.066320e+02 2.350000e+12
1.068820e+02 2.340000e+12
1.071320e+02 2.330000e+12
1.073820e+02 2.320000e+12
1.076320e+02 2.310000e+12
1.078820e+02 2.301000e+12
1.081320e+02 2.291000e+12
1.083820e+02 2.281000e+12
1.086330e+02 2.271000e+12
1.088830e+02 2.262000e+12
1.091330e+02 2.252000e+12
1.093830e+02 2.242000e+12
1.096330e+02 2.233000e+12
1.098830e+02 2.223000e+12
1.101330e+02 2.214000e+12
1.103830e+02 2.204000e+12
1.106330e+02 2.195000e+12
1.108830e+02 2.185000e+12
1.111330e+02 2.176000e+12
1.113830e+02 2.167000e+12
1.116330e+02 2.157000e+12
1.118840e+02 2.148000e+12
1.121340e+02 2.139000e+12
1.123840e+02 2.130000e+12
1.126340e+02 2.121000e+12
1.128840e+02 2.111000e+12
1.131340e+02 2.102000e+12
1.133840e+02 2.093000e+12
1.136340e+02 2.084000e+12
1.138840e+02 2.075000e+12
1.141340e+02 2.066000e+12
1.143840e+02 2.057000e+12
1.146340e+02 2.049000e+12
1.148840e+02 2.040000e+12
1.151350e+02 2.031000e+12
1.153850e+02 2.022000e+12
1.156350e+02 2.014000e+12
1.158850e+02 2.005000e+12
1.161350e+02 1.996000e+12
1.163850e+02 1.988000e+12
1.166350e+02 1.979000e+12
1.168850e+02 1.970000e+12
1.171350e+02 1.962000e+12
1.173850e+02 1.953000e+12
1.176350e+02 1.945000e+12
1.178850e+02 1.937000e+12
1.181350e+02 1.928000e+12
1.183850e+02 1.920000e+12
1.186360e+02 1.911000e+12
1.188860e+02 1.903000e+12
1.191360e+02 1.895000e+12
1.193860e+02 1.887000e+12
1.196360e+02 1.879000e+12
1.198860e+02 1.870000e+12
1.201360e+02 1.862000e+12
1.203860e+02 1.854000e+12
1.206360e+02 1.846000e+12
1.208860e+02 1.838000e+12
1.211360e+02 1.830000e+12
1.213860e+02 1.822000e+12
1.216360e+02 1.814000e+12
1.218870e+02 1.806000e+12
1.221370e+02 1.799000e+12
1.223870e+02 1.791000e+12
1.226370e+02 1.783000e+12
1.228870e+02 1.775000e+12
1.231370e+02 1.767000e+12
1.233870e+02 1.760000e+12
1.236370e+02 1.752000e+12
1.238870e+02 1.744000e+12
1.241370e+02 1.737000e+12
1.243870e+02 1.729000e+12
1.246370e+02 1.722000e+12
1.248870e+02 1.714000e+12
1.251380e+02 1.707000e+12
1.253880e+02 1.699000e+12
1.256380e+02 1.692000e+12
1.258880e+02 1.684000e+12
1.261380e+02 1.677000e+12
1.263880e+02 1.670000e+12
1.266380e+02 1.662000e+12
1.268880e+02 1.655000e+12
1.271380e+02 1.648000e+12
1.273880e+02 1.641000e+12
1.276380e+02 1.633000e+12
1.278880e+02 1.626000e+12
1.281380e+02 1.619000e+12
1.283880e+02 1.612000e+12
1.286390e+02 1.605000e+12
1.288890e+02 1.598000e+12
1.291390e+02 1.591000e+12
1.293890e+02 1.584000e+12
1.296390e+02 1.577000e+12
1.298890e+02 1.570000e+12
1.301390e+02 1.563000e+12
1.303890e+02 1.556000e+12
1.306390e+02 1.549000e+12
1.308890e+02 1.543000e+12
1.311390e+02 1.536000e+12
1.313890e+02 1.529000e+12
1.316390e+02 1.522000e+12
1.318900e+02 1.516000e+12
1.321400e+02 1.509000e+12
1.323900e+02 1.502000e+12
1.326400e+02 1.496000e+12
1.328900e+02 1.489000e+12
1.331400e+02 1.483000e+12
1.333900e+02 1.476000e+12
1.336400e+02 1.470000e+12
1.338900e+02 1.463000e+12
1.341400e+02 1.457000e+12
1.343900e+02 1.450000e+12
1.346400e+02 1.444000e+12
1.348900e+02 1.437000e+12
1.351410e+02 1.431000e+12
1.353910e+02 1.425000e+12
1.356410e+02 1.418000e+12
1.358910e+02 1.412000e+12
1.361410e+02 1.406000e+12
1.363910e+02 1.400000e+12
1.366410e+02 1.394000e+12
1.368910e+02 1.387000e+12
1.371410e+02 1.381000e+12
1.373910e+02 1.375000e+12
1.376410e+02 1.369000e+12
1.378910e+02 1.363000e+12
1.381410e+02 1.357000e+12
1.383910e+02 1.351000e+12
1.386420e+02 1.345000e+12
1.388920e+02 1.339000e+12
1.391420e+02 1.333000e+12
1.393920e+02 1.327000e+12
1.396420e+02 1.321000e+12
1.398920e+02 1.315000e+12
1.401420e+02 1.310000e+12
1.403920e+02 1.304000e+12
1.406420e+02 1.298000e+12
1.408920e+02 1.292000e+12
1.411420e+02 1.286000e+12
1.413920e+02 1.281000e+12
1.416420e+02 1.275000e+12
1.418930e+02 1.269000e+12
1.421430e+02 1.264000e+12
1.423930e+02 1.258000e+12
1.426430e+02 1.253000e+12
1.428930e+02 1.247000e+12
1.431430e+02 1.241000e+12
1.433930e+02 1.236000e+12
1.436430e+02 1.230000e+12
1.438930e+02 1.225000e+12
1.441430e+02 1.219000e+12
1.443930e+02 1.214000e+12
1.446430e+02 1.209000e+12
1.448930e+02 1.203000e+12
1.451440e+02 1.198000e+12
1.453940e+02 1.193000e+12
1.456440e+02 1.187000e+12
1.458940e+02 1.182000e+12
1.461440e+02 1.177000e+12
1.463940e+02 1.171000e+12
1.466440e+02 1.166000e+12
1.468940e+02 1.161000e+12
1.471440e+02 1.156000e+12
1.473940e+02 1.151000e+12
1.476440e+02 1.146000e+12
1.478940e+02 1.140000e+12
1.481440e+02 1.135000e+12
1.483940e+02 1.130000e+12
1.486450e+02 1.125000e+12
1.488950e+02 1.120000e+12
1.491450e+02 1.115000e+12
1.493950e+02 1.110000e+12
1.496450e+02 1.105000e+12
1.498950e+02 1.100000e+12
1.501450e+02 1.095000e+12
1.503950e+02 1.090000e+12
1.506450e+02 1.086000e+12
1.508950e+02 1.081000e+12
1.511450e+02 1.076000e+12
1.513950e+02 1.071000e+12
1.516450e+02 1.066000e+12
1.518960e+02 1.061000e+12
1.521460e+02 1.057000e+12
1.523960e+02 1.052000e+12
1.526460e+02 1.047000e+12
1.528960e+02 1.043000e+12
1.531460e+02 1.038000e+12
1.533960e+02 1.033000e+12
1.536460e+02 1.029000e+12
1.538960e+02 1.024000e+12
1.541460e+02 1.019000e+12
1.543960e+02 1.015000e+12
1.546460e+02 1.010000e+12
1.548960e+02 1.006000e+12
1.551470e+02 1.001000e+12
1.553970e+02 9.967000e+11
1.556470e+02 9.922000e+11
1.558970e+02 9.878000e+11
1.561470e+02 9.833000e+11
1.563970e+02 9.789000e+11
1.566470e+02 9.745000e+11
1.568970e+02 9.701000e+11
1.571470e+02 9.657000e+11
1.573970e+02 9.614000e+11
1.576470e+02 9.571000e+11
1.578970e+02 9.528000e+11
1.581470e+02 9.485000e+11
1.583970e+02 9.442000e+11
1.586480e+02 9.400000e+11
1.588980e+02 9.357000e+11
1.591480e+02 9.315000e+11
1.593980e+02 9.273000e+11
1.596480e+02 9.231000e+11
1.598980e+02 9.190000e+11
1.601480e+02 9.148000e+11
1.603980e+02 9.107000e+11
1.606480e+02 9.066000e+11
1.608980e+02 9.025000e+11
1.611480e+02 8.984000e+11
1.613980e+02 8.944000e+11
1.616480e+02 8.903000e+11
1.618990e+02 8.863000e+11
1.621490e+02 8.823000e+11
1.623990e+02 8.783000e+11
1.626490e+02 8.744000e+11
1.628990e+02 8.704000e+11
1.631490e+02 8.665000e+11
1.633990e+02 8.626000e+11
1.636490e+02 8.587000e+11
1.638990e+02 8.548000e+11
1.641490e+02 8.509000e+11
1.643990e+02 8.471000e+11
1.646490e+02 8.433000e+11
1.648990e+02 8.394000e+11
1.651500e+02 8.357000e+11
1.654000e+02 8.319000e+11
1.656500e+02 8.281000e+11
1.659000e+02 8.244000e+11
1.661500e+02 8.206000e+11
1.664000e+02 8.169000e+11
1.666500e+02 8.132000e+11
1.669000e+02 8.095000e+11
1.671500e+02 8.059000e+11
1.674000e+02 8.022000e+11
1.676500e+02 7.986000e+11
1.679000e+02 7.950000e+11
1.681500e+02 7.914000e+11
1.684010e+02 7.878000e+11
1.686510e+02 7.842000e+11
1.689010e+02 7.806000e+11
1.691510e+02 7.771000e+11
1.694010e+02 7.736000e+11
1.696510e+02 7.701000e+11
1.699010e+02 7.666000e+11
1.701510e+02 7.631000e+11
1.704010e+02 7.596000e+11
1.706510e+02 7.562000e+11
1.709010e+02 7.528000e+11
1.711510e+02 7.493000e+11
1.714010e+02 7.459000e+11
1.716510e+02 7.425000e+11
1.719020e+02 7.392000e+11
1.721520e+02 7.358000e+11
1.724020e+02 7.325000e+11
1.726520e+02 7.291000e+11
1.729020e+02 7.258000e+11
1.731520e+02 7.225000e+11
1.734020e+02 7.192000e+11
1.736520e+02 7.160000e+11
1.739020e+02 7.127000e+11
1.741520e+02 7.095000e+11
1.744020e+02 7.063000e+11
1.746520e+02 7.030000e+11
1.749020e+02 6.998000e+11
1.751530e+02 6.967000e+11
1.754030e+02 6.935000e+11
1.756530e+02 6.903000e+11
1.759030e+02 6.872000e+11
1.761530e+02 6.841000e+11
1.764030e+02 6.809000e+11
1.766530e+02 6.778000e+11
1.769030e+02 6.747000e+11
1.771530e+02 6.717000e+11
1.774030e+02 6.686000e+11
1.776530e+02 6.656000e+11
1.779030e+02 6.625000e+11
1.781530e+02 6.595000e+11
1.784040e+02 6.565000e+11
1.786540e+02 6.535000e+11
1.789040e+02 6.505000e+11
1.791540e+02 6.476000e+11
1.794040e+02 6.446000e+11
1.796540e+02 6.417000e+11
1.799040e+02 6.387000e+11
1.801540e+02 6.358000e+11
1.804040e+02 6.329000e+11
1.806540e+02 6.300000e+11
1.809040e+02 6.272000e+11
1.811540e+02 6.243000e+11
1.814040e+02 6.214000e+11
1.816540e+02 6.186000e+11
1.819050e+02 6.158000e+11
1.821550e+02 6.130000e+11
1.824050e+02 6.102000e+11
1.826550e+02 6.074000e+11
1.829050e+02 6.046000e+11
1.831550e+02 6.018000e+11
1.834050e+02 5.991000e+11
1.836550e+02 5.963000e+11
1.839050e+02 5.936000e+11
1.841550e+02 5.909000e+11
1.844050e+02 5.882000e+11
1.846550e+02 5.855000e+11
1.849050e+02 5.828000e+11
1.851560e+02 5.802000e+11
1.854060e+02 5.775000e+11
1.856560e+02 5.749000e+11
1.859060e+02 5.722000e+11
1.861560e+02 5.696000e+11
1.864060e+02 5.670000e+11
1.866560e+02 5.644000e+11
1.869060e+02 5.618000e+11
1.871560e+02 5.592000e+11
1.874060e+02 5.567000e+11
1.876560e+02 5.541000e+11
1.879060e+02 5.516000e+11
1.881560e+02 5.491000e+11
1.884070e+02 5.465000e+11
1.886570e+02 5.440000e+11
1.889070e+02 5.415000e+11
1.891570e+02 5.391000e+11
1.894070e+02 5.366000e+11
1.896570e+02 5.341000e+11
1.899070e+02 5.317000e+11
1.901570e+02 5.292000e+11
1.904070e+02 5.268000e+11
1.906570e+02 5.244000e+11
1.909070e+02 5.220000e+11
1.911570e+02 5.196000e+11
1.914070e+02 5.172000e+11
