# Energy [keV], Flux[ph/s/0.1%/100mA] - BC FE acceptance: 1.23 x 0.39 mrad²
1.000000e-01 2.916000e+11
3.500750e-01 6.796000e+11
6.001500e-01 9.794000e+11
8.502250e-01 1.240000e+12
1.100300e+00 1.476000e+12
1.350380e+00 1.694000e+12
1.600450e+00 1.898000e+12
1.850530e+00 2.090000e+12
2.100600e+00 2.272000e+12
2.350680e+00 2.446000e+12
2.600750e+00 2.612000e+12
2.850830e+00 2.770000e+12
3.100900e+00 2.923000e+12
3.350980e+00 3.069000e+12
3.601050e+00 3.210000e+12
3.851130e+00 3.346000e+12
4.101200e+00 3.477000e+12
4.351280e+00 3.603000e+12
4.601350e+00 3.725000e+12
4.851430e+00 3.843000e+12
5.101500e+00 3.957000e+12
5.351580e+00 4.068000e+12
5.601650e+00 4.174000e+12
5.851730e+00 4.277000e+12
6.101800e+00 4.377000e+12
6.351880e+00 4.474000e+12
6.601950e+00 4.567000e+12
6.852030e+00 4.658000e+12
7.102100e+00 4.746000e+12
7.352180e+00 4.831000e+12
7.602250e+00 4.913000e+12
7.852330e+00 4.993000e+12
8.102400e+00 5.070000e+12
8.352480e+00 5.144000e+12
8.602550e+00 5.217000e+12
8.852630e+00 5.286000e+12
9.102700e+00 5.354000e+12
9.352780e+00 5.420000e+12
9.602850e+00 5.483000e+12
9.852930e+00 5.544000e+12
1.010300e+01 5.604000e+12
1.035310e+01 5.661000e+12
1.060320e+01 5.716000e+12
1.085320e+01 5.770000e+12
1.110330e+01 5.822000e+12
1.135340e+01 5.872000e+12
1.160350e+01 5.920000e+12
1.185350e+01 5.967000e+12
1.210360e+01 6.012000e+12
1.235370e+01 6.055000e+12
1.260380e+01 6.097000e+12
1.285380e+01 6.137000e+12
1.310390e+01 6.176000e+12
1.335400e+01 6.213000e+12
1.360410e+01 6.249000e+12
1.385410e+01 6.284000e+12
1.410420e+01 6.317000e+12
1.435430e+01 6.349000e+12
1.460440e+01 6.380000e+12
1.485440e+01 6.409000e+12
1.510450e+01 6.437000e+12
1.535460e+01 6.464000e+12
1.560470e+01 6.490000e+12
1.585470e+01 6.514000e+12
1.610480e+01 6.538000e+12
1.635490e+01 6.560000e+12
1.660500e+01 6.582000e+12
1.685500e+01 6.602000e+12
1.710510e+01 6.622000e+12
1.735520e+01 6.640000e+12
1.760530e+01 6.657000e+12
1.785530e+01 6.674000e+12
1.810540e+01 6.689000e+12
1.835550e+01 6.704000e+12
1.860560e+01 6.718000e+12
1.885560e+01 6.731000e+12
1.910570e+01 6.743000e+12
1.935580e+01 6.754000e+12
1.960590e+01 6.764000e+12
1.985590e+01 6.774000e+12
2.010600e+01 6.783000e+12
2.035610e+01 6.791000e+12
2.060620e+01 6.798000e+12
2.085620e+01 6.805000e+12
2.110630e+01 6.811000e+12
2.135640e+01 6.816000e+12
2.160650e+01 6.821000e+12
2.185650e+01 6.825000e+12
2.210660e+01 6.828000e+12
2.235670e+01 6.831000e+12
2.260680e+01 6.833000e+12
2.285680e+01 6.834000e+12
2.310690e+01 6.835000e+12
2.335700e+01 6.835000e+12
2.360710e+01 6.835000e+12
2.385710e+01 6.835000e+12
2.410720e+01 6.833000e+12
2.435730e+01 6.831000e+12
2.460740e+01 6.829000e+12
2.485740e+01 6.826000e+12
2.510750e+01 6.823000e+12
2.535760e+01 6.819000e+12
2.560770e+01 6.815000e+12
2.585770e+01 6.811000e+12
2.610780e+01 6.805000e+12
2.635790e+01 6.800000e+12
2.660800e+01 6.794000e+12
2.685800e+01 6.788000e+12
2.710810e+01 6.781000e+12
2.735820e+01 6.774000e+12
2.760830e+01 6.766000e+12
2.785830e+01 6.758000e+12
2.810840e+01 6.750000e+12
2.835850e+01 6.742000e+12
2.860860e+01 6.733000e+12
2.885860e+01 6.724000e+12
2.910870e+01 6.714000e+12
2.935880e+01 6.704000e+12
2.960890e+01 6.694000e+12
2.985890e+01 6.683000e+12
3.010900e+01 6.673000e+12
3.035910e+01 6.662000e+12
3.060920e+01 6.650000e+12
3.085920e+01 6.639000e+12
3.110930e+01 6.627000e+12
3.135940e+01 6.614000e+12
3.160950e+01 6.602000e+12
3.185950e+01 6.589000e+12
3.210960e+01 6.577000e+12
3.235970e+01 6.563000e+12
3.260980e+01 6.550000e+12
3.285980e+01 6.537000e+12
3.310990e+01 6.523000e+12
3.336000e+01 6.509000e+12
3.361010e+01 6.495000e+12
3.386010e+01 6.480000e+12
3.411020e+01 6.466000e+12
3.436030e+01 6.451000e+12
3.461040e+01 6.436000e+12
3.486040e+01 6.421000e+12
3.511050e+01 6.405000e+12
3.536060e+01 6.390000e+12
3.561070e+01 6.374000e+12
3.586070e+01 6.359000e+12
3.611080e+01 6.343000e+12
3.636090e+01 6.327000e+12
3.661100e+01 6.310000e+12
3.686100e+01 6.294000e+12
3.711110e+01 6.278000e+12
3.736120e+01 6.261000e+12
3.761130e+01 6.244000e+12
3.786130e+01 6.227000e+12
3.811140e+01 6.210000e+12
3.836150e+01 6.193000e+12
3.861160e+01 6.176000e+12
3.886160e+01 6.159000e+12
3.911170e+01 6.141000e+12
3.936180e+01 6.124000e+12
3.961190e+01 6.106000e+12
3.986190e+01 6.088000e+12
4.011200e+01 6.071000e+12
4.036210e+01 6.053000e+12
4.061220e+01 6.035000e+12
4.086220e+01 6.017000e+12
4.111230e+01 5.999000e+12
4.136240e+01 5.980000e+12
4.161250e+01 5.962000e+12
4.186250e+01 5.944000e+12
4.211260e+01 5.925000e+12
4.236270e+01 5.907000e+12
4.261280e+01 5.888000e+12
4.286280e+01 5.870000e+12
4.311290e+01 5.851000e+12
4.336300e+01 5.833000e+12
4.361310e+01 5.814000e+12
4.386310e+01 5.795000e+12
4.411320e+01 5.776000e+12
4.436330e+01 5.757000e+12
4.461340e+01 5.739000e+12
4.486340e+01 5.720000e+12
4.511350e+01 5.701000e+12
4.536360e+01 5.682000e+12
4.561370e+01 5.663000e+12
4.586370e+01 5.644000e+12
4.611380e+01 5.624000e+12
4.636390e+01 5.605000e+12
4.661400e+01 5.586000e+12
4.686400e+01 5.567000e+12
4.711410e+01 5.548000e+12
4.736420e+01 5.529000e+12
4.761430e+01 5.509000e+12
4.786430e+01 5.490000e+12
4.811440e+01 5.471000e+12
4.836450e+01 5.452000e+12
4.861460e+01 5.433000e+12
4.886460e+01 5.413000e+12
4.911470e+01 5.394000e+12
4.936480e+01 5.375000e+12
4.961490e+01 5.355000e+12
4.986490e+01 5.336000e+12
5.011500e+01 5.317000e+12
5.036510e+01 5.298000e+12
5.061520e+01 5.278000e+12
5.086520e+01 5.259000e+12
5.111530e+01 5.240000e+12
5.136540e+01 5.221000e+12
5.161550e+01 5.201000e+12
5.186550e+01 5.182000e+12
5.211560e+01 5.163000e+12
5.236570e+01 5.144000e+12
5.261580e+01 5.125000e+12
5.286580e+01 5.105000e+12
5.311590e+01 5.086000e+12
5.336600e+01 5.067000e+12
5.361610e+01 5.048000e+12
5.386610e+01 5.029000e+12
5.411620e+01 5.010000e+12
5.436630e+01 4.991000e+12
5.461640e+01 4.972000e+12
5.486640e+01 4.953000e+12
5.511650e+01 4.934000e+12
5.536660e+01 4.915000e+12
5.561670e+01 4.896000e+12
5.586670e+01 4.877000e+12
5.611680e+01 4.858000e+12
5.636690e+01 4.839000e+12
5.661700e+01 4.820000e+12
5.686700e+01 4.801000e+12
5.711710e+01 4.783000e+12
5.736720e+01 4.764000e+12
5.761730e+01 4.745000e+12
5.786730e+01 4.726000e+12
5.811740e+01 4.708000e+12
5.836750e+01 4.689000e+12
5.861760e+01 4.670000e+12
5.886760e+01 4.652000e+12
5.911770e+01 4.633000e+12
5.936780e+01 4.615000e+12
5.961790e+01 4.596000e+12
5.986790e+01 4.578000e+12
6.011800e+01 4.560000e+12
6.036810e+01 4.541000e+12
6.061820e+01 4.523000e+12
6.086820e+01 4.505000e+12
6.111830e+01 4.487000e+12
6.136840e+01 4.468000e+12
6.161850e+01 4.450000e+12
6.186850e+01 4.432000e+12
6.211860e+01 4.414000e+12
6.236870e+01 4.396000e+12
6.261880e+01 4.378000e+12
6.286880e+01 4.360000e+12
6.311890e+01 4.342000e+12
6.336900e+01 4.324000e+12
6.361910e+01 4.307000e+12
6.386910e+01 4.289000e+12
6.411920e+01 4.271000e+12
6.436930e+01 4.254000e+12
6.461940e+01 4.236000e+12
6.486940e+01 4.218000e+12
6.511950e+01 4.201000e+12
6.536960e+01 4.183000e+12
6.561970e+01 4.166000e+12
6.586970e+01 4.149000e+12
6.611980e+01 4.131000e+12
6.636990e+01 4.114000e+12
6.662000e+01 4.097000e+12
6.687000e+01 4.080000e+12
6.712010e+01 4.062000e+12
6.737020e+01 4.045000e+12
6.762030e+01 4.028000e+12
6.787030e+01 4.011000e+12
6.812040e+01 3.994000e+12
6.837050e+01 3.977000e+12
6.862060e+01 3.961000e+12
6.887060e+01 3.944000e+12
6.912070e+01 3.927000e+12
6.937080e+01 3.910000e+12
6.962090e+01 3.894000e+12
6.987090e+01 3.877000e+12
7.012100e+01 3.861000e+12
7.037110e+01 3.844000e+12
7.062120e+01 3.828000e+12
7.087120e+01 3.811000e+12
7.112130e+01 3.795000e+12
7.137140e+01 3.779000e+12
7.162150e+01 3.762000e+12
7.187150e+01 3.746000e+12
7.212160e+01 3.730000e+12
7.237170e+01 3.714000e+12
7.262180e+01 3.698000e+12
7.287180e+01 3.682000e+12
7.312190e+01 3.666000e+12
7.337200e+01 3.650000e+12
7.362210e+01 3.634000e+12
7.387210e+01 3.619000e+12
7.412220e+01 3.603000e+12
7.437230e+01 3.587000e+12
7.462240e+01 3.572000e+12
7.487240e+01 3.556000e+12
7.512250e+01 3.540000e+12
7.537260e+01 3.525000e+12
7.562270e+01 3.510000e+12
7.587270e+01 3.494000e+12
7.612280e+01 3.479000e+12
7.637290e+01 3.464000e+12
7.662300e+01 3.449000e+12
7.687300e+01 3.433000e+12
7.712310e+01 3.418000e+12
7.737320e+01 3.403000e+12
7.762330e+01 3.388000e+12
7.787330e+01 3.373000e+12
7.812340e+01 3.358000e+12
7.837350e+01 3.344000e+12
7.862360e+01 3.329000e+12
7.887360e+01 3.314000e+12
7.912370e+01 3.299000e+12
7.937380e+01 3.285000e+12
7.962390e+01 3.270000e+12
7.987390e+01 3.256000e+12
8.012400e+01 3.241000e+12
8.037410e+01 3.227000e+12
8.062420e+01 3.213000e+12
8.087420e+01 3.198000e+12
8.112430e+01 3.184000e+12
8.137440e+01 3.170000e+12
8.162450e+01 3.156000e+12
8.187450e+01 3.142000e+12
8.212460e+01 3.128000e+12
8.237470e+01 3.114000e+12
8.262480e+01 3.100000e+12
8.287480e+01 3.086000e+12
8.312490e+01 3.072000e+12
8.337500e+01 3.058000e+12
8.362510e+01 3.044000e+12
8.387510e+01 3.031000e+12
8.412520e+01 3.017000e+12
8.437530e+01 3.004000e+12
8.462540e+01 2.990000e+12
8.487540e+01 2.977000e+12
8.512550e+01 2.963000e+12
8.537560e+01 2.950000e+12
8.562570e+01 2.937000e+12
8.587570e+01 2.923000e+12
8.612580e+01 2.910000e+12
8.637590e+01 2.897000e+12
8.662600e+01 2.884000e+12
8.687600e+01 2.871000e+12
8.712610e+01 2.858000e+12
8.737620e+01 2.845000e+12
8.762630e+01 2.832000e+12
8.787630e+01 2.819000e+12
8.812640e+01 2.806000e+12
8.837650e+01 2.793000e+12
8.862660e+01 2.781000e+12
8.887660e+01 2.768000e+12
8.912670e+01 2.755000e+12
8.937680e+01 2.743000e+12
8.962690e+01 2.730000e+12
8.987690e+01 2.718000e+12
9.012700e+01 2.706000e+12
9.037710e+01 2.693000e+12
9.062720e+01 2.681000e+12
9.087720e+01 2.669000e+12
9.112730e+01 2.656000e+12
9.137740e+01 2.644000e+12
9.162750e+01 2.632000e+12
9.187750e+01 2.620000e+12
9.212760e+01 2.608000e+12
9.237770e+01 2.596000e+12
9.262780e+01 2.584000e+12
9.287780e+01 2.572000e+12
9.312790e+01 2.560000e+12
9.337800e+01 2.549000e+12
9.362810e+01 2.537000e+12
9.387810e+01 2.525000e+12
9.412820e+01 2.514000e+12
9.437830e+01 2.502000e+12
9.462840e+01 2.491000e+12
9.487840e+01 2.479000e+12
9.512850e+01 2.468000e+12
9.537860e+01 2.456000e+12
9.562870e+01 2.445000e+12
9.587870e+01 2.434000e+12
9.612880e+01 2.422000e+12
9.637890e+01 2.411000e+12
9.662900e+01 2.400000e+12
9.687900e+01 2.389000e+12
9.712910e+01 2.378000e+12
9.737920e+01 2.367000e+12
9.762930e+01 2.356000e+12
9.787930e+01 2.345000e+12
9.812940e+01 2.334000e+12
9.837950e+01 2.323000e+12
9.862960e+01 2.312000e+12
9.887960e+01 2.302000e+12
9.912970e+01 2.291000e+12
9.937980e+01 2.280000e+12
9.962990e+01 2.270000e+12
9.987990e+01 2.259000e+12
1.001300e+02 2.249000e+12
1.003800e+02 2.238000e+12
1.006300e+02 2.228000e+12
1.008800e+02 2.217000e+12
1.011300e+02 2.207000e+12
1.013800e+02 2.197000e+12
1.016300e+02 2.186000e+12
1.018810e+02 2.176000e+12
1.021310e+02 2.166000e+12
1.023810e+02 2.156000e+12
1.026310e+02 2.146000e+12
1.028810e+02 2.136000e+12
1.031310e+02 2.126000e+12
1.033810e+02 2.116000e+12
1.036310e+02 2.106000e+12
1.038810e+02 2.096000e+12
1.041310e+02 2.086000e+12
1.043810e+02 2.076000e+12
1.046310e+02 2.067000e+12
1.048810e+02 2.057000e+12
1.051320e+02 2.047000e+12
1.053820e+02 2.038000e+12
1.056320e+02 2.028000e+12
1.058820e+02 2.018000e+12
1.061320e+02 2.009000e+12
1.063820e+02 1.999000e+12
1.066320e+02 1.990000e+12
1.068820e+02 1.981000e+12
1.071320e+02 1.971000e+12
1.073820e+02 1.962000e+12
1.076320e+02 1.953000e+12
1.078820e+02 1.944000e+12
1.081320e+02 1.934000e+12
1.083820e+02 1.925000e+12
1.086330e+02 1.916000e+12
1.088830e+02 1.907000e+12
1.091330e+02 1.898000e+12
1.093830e+02 1.889000e+12
1.096330e+02 1.880000e+12
1.098830e+02 1.871000e+12
1.101330e+02 1.862000e+12
1.103830e+02 1.854000e+12
1.106330e+02 1.845000e+12
1.108830e+02 1.836000e+12
1.111330e+02 1.827000e+12
1.113830e+02 1.819000e+12
1.116330e+02 1.810000e+12
1.118840e+02 1.802000e+12
1.121340e+02 1.793000e+12
1.123840e+02 1.784000e+12
1.126340e+02 1.776000e+12
1.128840e+02 1.768000e+12
1.131340e+02 1.759000e+12
1.133840e+02 1.751000e+12
1.136340e+02 1.742000e+12
1.138840e+02 1.734000e+12
1.141340e+02 1.726000e+12
1.143840e+02 1.718000e+12
1.146340e+02 1.709000e+12
1.148840e+02 1.701000e+12
1.151350e+02 1.693000e+12
1.153850e+02 1.685000e+12
1.156350e+02 1.677000e+12
1.158850e+02 1.669000e+12
1.161350e+02 1.661000e+12
1.163850e+02 1.653000e+12
1.166350e+02 1.645000e+12
1.168850e+02 1.637000e+12
1.171350e+02 1.630000e+12
1.173850e+02 1.622000e+12
1.176350e+02 1.614000e+12
1.178850e+02 1.606000e+12
1.181350e+02 1.599000e+12
1.183850e+02 1.591000e+12
1.186360e+02 1.583000e+12
1.188860e+02 1.576000e+12
1.191360e+02 1.568000e+12
1.193860e+02 1.561000e+12
1.196360e+02 1.553000e+12
1.198860e+02 1.546000e+12
1.201360e+02 1.538000e+12
1.203860e+02 1.531000e+12
1.206360e+02 1.524000e+12
1.208860e+02 1.516000e+12
1.211360e+02 1.509000e+12
1.213860e+02 1.502000e+12
1.216360e+02 1.495000e+12
1.218870e+02 1.488000e+12
1.221370e+02 1.480000e+12
1.223870e+02 1.473000e+12
1.226370e+02 1.466000e+12
1.228870e+02 1.459000e+12
1.231370e+02 1.452000e+12
1.233870e+02 1.445000e+12
1.236370e+02 1.438000e+12
1.238870e+02 1.431000e+12
1.241370e+02 1.424000e+12
1.243870e+02 1.417000e+12
1.246370e+02 1.411000e+12
1.248870e+02 1.404000e+12
1.251380e+02 1.397000e+12
1.253880e+02 1.390000e+12
1.256380e+02 1.384000e+12
1.258880e+02 1.377000e+12
1.261380e+02 1.370000e+12
1.263880e+02 1.364000e+12
1.266380e+02 1.357000e+12
1.268880e+02 1.351000e+12
1.271380e+02 1.344000e+12
1.273880e+02 1.338000e+12
1.276380e+02 1.331000e+12
1.278880e+02 1.325000e+12
1.281380e+02 1.318000e+12
1.283880e+02 1.312000e+12
1.286390e+02 1.306000e+12
1.288890e+02 1.299000e+12
1.291390e+02 1.293000e+12
1.293890e+02 1.287000e+12
1.296390e+02 1.280000e+12
1.298890e+02 1.274000e+12
1.301390e+02 1.268000e+12
1.303890e+02 1.262000e+12
1.306390e+02 1.256000e+12
1.308890e+02 1.250000e+12
1.311390e+02 1.244000e+12
1.313890e+02 1.238000e+12
1.316390e+02 1.232000e+12
1.318900e+02 1.226000e+12
1.321400e+02 1.220000e+12
1.323900e+02 1.214000e+12
1.326400e+02 1.208000e+12
1.328900e+02 1.202000e+12
1.331400e+02 1.196000e+12
1.333900e+02 1.190000e+12
1.336400e+02 1.185000e+12
1.338900e+02 1.179000e+12
1.341400e+02 1.173000e+12
1.343900e+02 1.167000e+12
1.346400e+02 1.162000e+12
1.348900e+02 1.156000e+12
1.351410e+02 1.150000e+12
1.353910e+02 1.145000e+12
1.356410e+02 1.139000e+12
1.358910e+02 1.134000e+12
1.361410e+02 1.128000e+12
1.363910e+02 1.123000e+12
1.366410e+02 1.117000e+12
1.368910e+02 1.112000e+12
1.371410e+02 1.106000e+12
1.373910e+02 1.101000e+12
1.376410e+02 1.095000e+12
1.378910e+02 1.090000e+12
1.381410e+02 1.085000e+12
1.383910e+02 1.080000e+12
1.386420e+02 1.074000e+12
1.388920e+02 1.069000e+12
1.391420e+02 1.064000e+12
1.393920e+02 1.059000e+12
1.396420e+02 1.053000e+12
1.398920e+02 1.048000e+12
1.401420e+02 1.043000e+12
1.403920e+02 1.038000e+12
1.406420e+02 1.033000e+12
1.408920e+02 1.028000e+12
1.411420e+02 1.023000e+12
1.413920e+02 1.018000e+12
1.416420e+02 1.013000e+12
1.418930e+02 1.008000e+12
1.421430e+02 1.003000e+12
1.423930e+02 9.981000e+11
1.426430e+02 9.932000e+11
1.428930e+02 9.883000e+11
1.431430e+02 9.835000e+11
1.433930e+02 9.786000e+11
1.436430e+02 9.738000e+11
1.438930e+02 9.691000e+11
1.441430e+02 9.643000e+11
1.443930e+02 9.596000e+11
1.446430e+02 9.549000e+11
1.448930e+02 9.502000e+11
1.451440e+02 9.455000e+11
1.453940e+02 9.409000e+11
1.456440e+02 9.363000e+11
1.458940e+02 9.317000e+11
1.461440e+02 9.271000e+11
1.463940e+02 9.225000e+11
1.466440e+02 9.180000e+11
1.468940e+02 9.135000e+11
1.471440e+02 9.090000e+11
1.473940e+02 9.045000e+11
1.476440e+02 9.001000e+11
1.478940e+02 8.956000e+11
1.481440e+02 8.912000e+11
1.483940e+02 8.868000e+11
1.486450e+02 8.825000e+11
1.488950e+02 8.781000e+11
1.491450e+02 8.738000e+11
1.493950e+02 8.695000e+11
1.496450e+02 8.652000e+11
1.498950e+02 8.609000e+11
1.501450e+02 8.567000e+11
1.503950e+02 8.525000e+11
1.506450e+02 8.483000e+11
1.508950e+02 8.441000e+11
1.511450e+02 8.399000e+11
1.513950e+02 8.358000e+11
1.516450e+02 8.317000e+11
1.518960e+02 8.276000e+11
1.521460e+02 8.235000e+11
1.523960e+02 8.194000e+11
1.526460e+02 8.154000e+11
1.528960e+02 8.113000e+11
1.531460e+02 8.073000e+11
1.533960e+02 8.033000e+11
1.536460e+02 7.994000e+11
1.538960e+02 7.954000e+11
1.541460e+02 7.915000e+11
1.543960e+02 7.876000e+11
1.546460e+02 7.837000e+11
1.548960e+02 7.798000e+11
1.551470e+02 7.760000e+11
1.553970e+02 7.721000e+11
1.556470e+02 7.683000e+11
1.558970e+02 7.645000e+11
1.561470e+02 7.607000e+11
1.563970e+02 7.570000e+11
1.566470e+02 7.532000e+11
1.568970e+02 7.495000e+11
1.571470e+02 7.458000e+11
1.573970e+02 7.421000e+11
1.576470e+02 7.384000e+11
1.578970e+02 7.347000e+11
1.581470e+02 7.311000e+11
1.583970e+02 7.275000e+11
1.586480e+02 7.239000e+11
1.588980e+02 7.203000e+11
1.591480e+02 7.167000e+11
1.593980e+02 7.131000e+11
1.596480e+02 7.096000e+11
1.598980e+02 7.061000e+11
1.601480e+02 7.026000e+11
1.603980e+02 6.991000e+11
1.606480e+02 6.956000e+11
1.608980e+02 6.922000e+11
1.611480e+02 6.887000e+11
1.613980e+02 6.853000e+11
1.616480e+02 6.819000e+11
1.618990e+02 6.785000e+11
1.621490e+02 6.752000e+11
1.623990e+02 6.718000e+11
1.626490e+02 6.685000e+11
1.628990e+02 6.651000e+11
1.631490e+02 6.618000e+11
1.633990e+02 6.585000e+11
1.636490e+02 6.553000e+11
1.638990e+02 6.520000e+11
1.641490e+02 6.488000e+11
1.643990e+02 6.455000e+11
1.646490e+02 6.423000e+11
1.648990e+02 6.391000e+11
1.651500e+02 6.359000e+11
1.654000e+02 6.328000e+11
1.656500e+02 6.296000e+11
1.659000e+02 6.265000e+11
1.661500e+02 6.234000e+11
1.664000e+02 6.203000e+11
1.666500e+02 6.172000e+11
1.669000e+02 6.141000e+11
1.671500e+02 6.110000e+11
1.674000e+02 6.080000e+11
1.676500e+02 6.050000e+11
1.679000e+02 6.020000e+11
1.681500e+02 5.990000e+11
1.684010e+02 5.960000e+11
1.686510e+02 5.930000e+11
1.689010e+02 5.900000e+11
1.691510e+02 5.871000e+11
1.694010e+02 5.842000e+11
1.696510e+02 5.812000e+11
1.699010e+02 5.783000e+11
1.701510e+02 5.755000e+11
1.704010e+02 5.726000e+11
1.706510e+02 5.697000e+11
1.709010e+02 5.669000e+11
1.711510e+02 5.640000e+11
1.714010e+02 5.612000e+11
1.716510e+02 5.584000e+11
1.719020e+02 5.556000e+11
1.721520e+02 5.529000e+11
1.724020e+02 5.501000e+11
1.726520e+02 5.473000e+11
1.729020e+02 5.446000e+11
1.731520e+02 5.419000e+11
1.734020e+02 5.392000e+11
1.736520e+02 5.365000e+11
1.739020e+02 5.338000e+11
1.741520e+02 5.311000e+11
1.744020e+02 5.285000e+11
1.746520e+02 5.258000e+11
1.749020e+02 5.232000e+11
1.751530e+02 5.206000e+11
1.754030e+02 5.180000e+11
1.756530e+02 5.154000e+11
1.759030e+02 5.128000e+11
1.761530e+02 5.102000e+11
1.764030e+02 5.077000e+11
1.766530e+02 5.051000e+11
1.769030e+02 5.026000e+11
1.771530e+02 5.001000e+11
1.774030e+02 4.976000e+11
1.776530e+02 4.951000e+11
1.779030e+02 4.926000e+11
1.781530e+02 4.901000e+11
1.784040e+02 4.877000e+11
1.786540e+02 4.852000e+11
1.789040e+02 4.828000e+11
1.791540e+02 4.804000e+11
1.794040e+02 4.780000e+11
1.796540e+02 4.756000e+11
1.799040e+02 4.732000e+11
1.801540e+02 4.708000e+11
1.804040e+02 4.684000e+11
1.806540e+02 4.661000e+11
1.809040e+02 4.637000e+11
1.811540e+02 4.614000e+11
1.814040e+02 4.591000e+11
1.816540e+02 4.568000e+11
1.819050e+02 4.545000e+11
1.821550e+02 4.522000e+11
1.824050e+02 4.499000e+11
1.826550e+02 4.477000e+11
1.829050e+02 4.454000e+11
1.831550e+02 4.432000e+11
1.834050e+02 4.410000e+11
1.836550e+02 4.387000e+11
1.839050e+02 4.365000e+11
1.841550e+02 4.343000e+11
1.844050e+02 4.322000e+11
1.846550e+02 4.300000e+11
1.849050e+02 4.278000e+11
1.851560e+02 4.257000e+11
1.854060e+02 4.235000e+11
1.856560e+02 4.214000e+11
1.859060e+02 4.193000e+11
1.861560e+02 4.172000e+11
1.864060e+02 4.151000e+11
1.866560e+02 4.130000e+11
1.869060e+02 4.109000e+11
1.871560e+02 4.088000e+11
1.874060e+02 4.068000e+11
1.876560e+02 4.047000e+11
1.879060e+02 4.027000e+11
1.881560e+02 4.006000e+11
1.884070e+02 3.986000e+11
1.886570e+02 3.966000e+11
1.889070e+02 3.946000e+11
1.891570e+02 3.926000e+11
1.894070e+02 3.906000e+11
1.896570e+02 3.887000e+11
1.899070e+02 3.867000e+11
1.901570e+02 3.848000e+11
1.904070e+02 3.828000e+11
1.906570e+02 3.809000e+11
1.909070e+02 3.790000e+11
1.911570e+02 3.771000e+11
1.914070e+02 3.752000e+11
