# Energy [keV], Flux[ph/s/0.1%/100mA] - BC FE acceptance: 1.23 x 0.39 mrad²
1.000000e-01 3.008000e+11
3.500750e-01 7.013000e+11
6.001500e-01 1.011000e+12
8.502250e-01 1.280000e+12
1.100300e+00 1.523000e+12
1.350380e+00 1.748000e+12
1.600450e+00 1.958000e+12
1.850530e+00 2.155000e+12
2.100600e+00 2.343000e+12
2.350680e+00 2.521000e+12
2.600750e+00 2.691000e+12
2.850830e+00 2.854000e+12
3.100900e+00 3.010000e+12
3.350980e+00 3.160000e+12
3.601050e+00 3.304000e+12
3.851130e+00 3.442000e+12
4.101200e+00 3.576000e+12
4.351280e+00 3.705000e+12
4.601350e+00 3.829000e+12
4.851430e+00 3.949000e+12
5.101500e+00 4.064000e+12
5.351580e+00 4.176000e+12
5.601650e+00 4.284000e+12
5.851730e+00 4.388000e+12
6.101800e+00 4.489000e+12
6.351880e+00 4.587000e+12
6.601950e+00 4.681000e+12
6.852030e+00 4.772000e+12
7.102100e+00 4.860000e+12
7.352180e+00 4.945000e+12
7.602250e+00 5.027000e+12
7.852330e+00 5.107000e+12
8.102400e+00 5.184000e+12
8.352480e+00 5.258000e+12
8.602550e+00 5.330000e+12
8.852630e+00 5.399000e+12
9.102700e+00 5.466000e+12
9.352780e+00 5.531000e+12
9.602850e+00 5.593000e+12
9.852930e+00 5.654000e+12
1.010300e+01 5.712000e+12
1.035310e+01 5.768000e+12
1.060320e+01 5.823000e+12
1.085320e+01 5.875000e+12
1.110330e+01 5.925000e+12
1.135340e+01 5.974000e+12
1.160350e+01 6.021000e+12
1.185350e+01 6.066000e+12
1.210360e+01 6.109000e+12
1.235370e+01 6.151000e+12
1.260380e+01 6.191000e+12
1.285380e+01 6.229000e+12
1.310390e+01 6.266000e+12
1.335400e+01 6.302000e+12
1.360410e+01 6.336000e+12
1.385410e+01 6.368000e+12
1.410420e+01 6.400000e+12
1.435430e+01 6.430000e+12
1.460440e+01 6.458000e+12
1.485440e+01 6.485000e+12
1.510450e+01 6.511000e+12
1.535460e+01 6.536000e+12
1.560470e+01 6.560000e+12
1.585470e+01 6.582000e+12
1.610480e+01 6.603000e+12
1.635490e+01 6.624000e+12
1.660500e+01 6.643000e+12
1.685500e+01 6.661000e+12
1.710510e+01 6.678000e+12
1.735520e+01 6.694000e+12
1.760530e+01 6.709000e+12
1.785530e+01 6.723000e+12
1.810540e+01 6.736000e+12
1.835550e+01 6.748000e+12
1.860560e+01 6.759000e+12
1.885560e+01 6.770000e+12
1.910570e+01 6.780000e+12
1.935580e+01 6.788000e+12
1.960590e+01 6.796000e+12
1.985590e+01 6.803000e+12
2.010600e+01 6.810000e+12
2.035610e+01 6.815000e+12
2.060620e+01 6.820000e+12
2.085620e+01 6.824000e+12
2.110630e+01 6.828000e+12
2.135640e+01 6.831000e+12
2.160650e+01 6.833000e+12
2.185650e+01 6.834000e+12
2.210660e+01 6.835000e+12
2.235670e+01 6.835000e+12
2.260680e+01 6.835000e+12
2.285680e+01 6.834000e+12
2.310690e+01 6.833000e+12
2.335700e+01 6.831000e+12
2.360710e+01 6.828000e+12
2.385710e+01 6.825000e+12
2.410720e+01 6.821000e+12
2.435730e+01 6.817000e+12
2.460740e+01 6.812000e+12
2.485740e+01 6.807000e+12
2.510750e+01 6.801000e+12
2.535760e+01 6.795000e+12
2.560770e+01 6.789000e+12
2.585770e+01 6.782000e+12
2.610780e+01 6.774000e+12
2.635790e+01 6.766000e+12
2.660800e+01 6.758000e+12
2.685800e+01 6.749000e+12
2.710810e+01 6.740000e+12
2.735820e+01 6.731000e+12
2.760830e+01 6.721000e+12
2.785830e+01 6.711000e+12
2.810840e+01 6.701000e+12
2.835850e+01 6.690000e+12
2.860860e+01 6.679000e+12
2.885860e+01 6.667000e+12
2.910870e+01 6.655000e+12
2.935880e+01 6.643000e+12
2.960890e+01 6.631000e+12
2.985890e+01 6.618000e+12
3.010900e+01 6.606000e+12
3.035910e+01 6.592000e+12
3.060920e+01 6.579000e+12
3.085920e+01 6.565000e+12
3.110930e+01 6.551000e+12
3.135940e+01 6.537000e+12
3.160950e+01 6.523000e+12
3.185950e+01 6.508000e+12
3.210960e+01 6.493000e+12
3.235970e+01 6.478000e+12
3.260980e+01 6.463000e+12
3.285980e+01 6.447000e+12
3.310990e+01 6.431000e+12
3.336000e+01 6.415000e+12
3.361010e+01 6.399000e+12
3.386010e+01 6.383000e+12
3.411020e+01 6.367000e+12
3.436030e+01 6.350000e+12
3.461040e+01 6.333000e+12
3.486040e+01 6.316000e+12
3.511050e+01 6.299000e+12
3.536060e+01 6.282000e+12
3.561070e+01 6.265000e+12
3.586070e+01 6.247000e+12
3.611080e+01 6.230000e+12
3.636090e+01 6.212000e+12
3.661100e+01 6.194000e+12
3.686100e+01 6.176000e+12
3.711110e+01 6.158000e+12
3.736120e+01 6.139000e+12
3.761130e+01 6.121000e+12
3.786130e+01 6.103000e+12
3.811140e+01 6.084000e+12
3.836150e+01 6.065000e+12
3.861160e+01 6.047000e+12
3.886160e+01 6.028000e+12
3.911170e+01 6.009000e+12
3.936180e+01 5.990000e+12
3.961190e+01 5.971000e+12
3.986190e+01 5.952000e+12
4.011200e+01 5.932000e+12
4.036210e+01 5.913000e+12
4.061220e+01 5.894000e+12
4.086220e+01 5.874000e+12
4.111230e+01 5.855000e+12
4.136240e+01 5.835000e+12
4.161250e+01 5.816000e+12
4.186250e+01 5.796000e+12
4.211260e+01 5.776000e+12
4.236270e+01 5.756000e+12
4.261280e+01 5.737000e+12
4.286280e+01 5.717000e+12
4.311290e+01 5.697000e+12
4.336300e+01 5.677000e+12
4.361310e+01 5.657000e+12
4.386310e+01 5.637000e+12
4.411320e+01 5.617000e+12
4.436330e+01 5.597000e+12
4.461340e+01 5.577000e+12
4.486340e+01 5.557000e+12
4.511350e+01 5.537000e+12
4.536360e+01 5.517000e+12
4.561370e+01 5.497000e+12
4.586370e+01 5.476000e+12
4.611380e+01 5.456000e+12
4.636390e+01 5.436000e+12
4.661400e+01 5.416000e+12
4.686400e+01 5.396000e+12
4.711410e+01 5.376000e+12
4.736420e+01 5.355000e+12
4.761430e+01 5.335000e+12
4.786430e+01 5.315000e+12
4.811440e+01 5.295000e+12
4.836450e+01 5.275000e+12
4.861460e+01 5.254000e+12
4.886460e+01 5.234000e+12
4.911470e+01 5.214000e+12
4.936480e+01 5.194000e+12
4.961490e+01 5.174000e+12
4.986490e+01 5.154000e+12
5.011500e+01 5.134000e+12
5.036510e+01 5.113000e+12
5.061520e+01 5.093000e+12
5.086520e+01 5.073000e+12
5.111530e+01 5.053000e+12
5.136540e+01 5.033000e+12
5.161550e+01 5.013000e+12
5.186550e+01 4.993000e+12
5.211560e+01 4.973000e+12
5.236570e+01 4.953000e+12
5.261580e+01 4.933000e+12
5.286580e+01 4.914000e+12
5.311590e+01 4.894000e+12
5.336600e+01 4.874000e+12
5.361610e+01 4.854000e+12
5.386610e+01 4.834000e+12
5.411620e+01 4.815000e+12
5.436630e+01 4.795000e+12
5.461640e+01 4.775000e+12
5.486640e+01 4.756000e+12
5.511650e+01 4.736000e+12
5.536660e+01 4.716000e+12
5.561670e+01 4.697000e+12
5.586670e+01 4.677000e+12
5.611680e+01 4.658000e+12
5.636690e+01 4.639000e+12
5.661700e+01 4.619000e+12
5.686700e+01 4.600000e+12
5.711710e+01 4.581000e+12
5.736720e+01 4.561000e+12
5.761730e+01 4.542000e+12
5.786730e+01 4.523000e+12
5.811740e+01 4.504000e+12
5.836750e+01 4.485000e+12
5.861760e+01 4.466000e+12
5.886760e+01 4.447000e+12
5.911770e+01 4.428000e+12
5.936780e+01 4.409000e+12
5.961790e+01 4.390000e+12
5.986790e+01 4.371000e+12
6.011800e+01 4.352000e+12
6.036810e+01 4.334000e+12
6.061820e+01 4.315000e+12
6.086820e+01 4.296000e+12
6.111830e+01 4.278000e+12
6.136840e+01 4.259000e+12
6.161850e+01 4.241000e+12
6.186850e+01 4.223000e+12
6.211860e+01 4.204000e+12
6.236870e+01 4.186000e+12
6.261880e+01 4.168000e+12
6.286880e+01 4.149000e+12
6.311890e+01 4.131000e+12
6.336900e+01 4.113000e+12
6.361910e+01 4.095000e+12
6.386910e+01 4.077000e+12
6.411920e+01 4.059000e+12
6.436930e+01 4.041000e+12
6.461940e+01 4.023000e+12
6.486940e+01 4.006000e+12
6.511950e+01 3.988000e+12
6.536960e+01 3.970000e+12
6.561970e+01 3.953000e+12
6.586970e+01 3.935000e+12
6.611980e+01 3.917000e+12
6.636990e+01 3.900000e+12
6.662000e+01 3.883000e+12
6.687000e+01 3.865000e+12
6.712010e+01 3.848000e+12
6.737020e+01 3.831000e+12
6.762030e+01 3.814000e+12
6.787030e+01 3.796000e+12
6.812040e+01 3.779000e+12
6.837050e+01 3.762000e+12
6.862060e+01 3.745000e+12
6.887060e+01 3.728000e+12
6.912070e+01 3.712000e+12
6.937080e+01 3.695000e+12
6.962090e+01 3.678000e+12
6.987090e+01 3.661000e+12
7.012100e+01 3.645000e+12
7.037110e+01 3.628000e+12
7.062120e+01 3.612000e+12
7.087120e+01 3.595000e+12
7.112130e+01 3.579000e+12
7.137140e+01 3.563000e+12
7.162150e+01 3.546000e+12
7.187150e+01 3.530000e+12
7.212160e+01 3.514000e+12
7.237170e+01 3.498000e+12
7.262180e+01 3.482000e+12
7.287180e+01 3.466000e+12
7.312190e+01 3.450000e+12
7.337200e+01 3.434000e+12
7.362210e+01 3.418000e+12
7.387210e+01 3.403000e+12
7.412220e+01 3.387000e+12
7.437230e+01 3.371000e+12
7.462240e+01 3.356000e+12
7.487240e+01 3.340000e+12
7.512250e+01 3.325000e+12
7.537260e+01 3.309000e+12
7.562270e+01 3.294000e+12
7.587270e+01 3.279000e+12
7.612280e+01 3.263000e+12
7.637290e+01 3.248000e+12
7.662300e+01 3.233000e+12
7.687300e+01 3.218000e+12
7.712310e+01 3.203000e+12
7.737320e+01 3.188000e+12
7.762330e+01 3.173000e+12
7.787330e+01 3.158000e+12
7.812340e+01 3.144000e+12
7.837350e+01 3.129000e+12
7.862360e+01 3.114000e+12
7.887360e+01 3.100000e+12
7.912370e+01 3.085000e+12
7.937380e+01 3.071000e+12
7.962390e+01 3.056000e+12
7.987390e+01 3.042000e+12
8.012400e+01 3.028000e+12
8.037410e+01 3.013000e+12
8.062420e+01 2.999000e+12
8.087420e+01 2.985000e+12
8.112430e+01 2.971000e+12
8.137440e+01 2.957000e+12
8.162450e+01 2.943000e+12
8.187450e+01 2.929000e+12
8.212460e+01 2.915000e+12
8.237470e+01 2.901000e+12
8.262480e+01 2.888000e+12
8.287480e+01 2.874000e+12
8.312490e+01 2.860000e+12
8.337500e+01 2.847000e+12
8.362510e+01 2.833000e+12
8.387510e+01 2.820000e+12
8.412520e+01 2.806000e+12
8.437530e+01 2.793000e+12
8.462540e+01 2.780000e+12
8.487540e+01 2.766000e+12
8.512550e+01 2.753000e+12
8.537560e+01 2.740000e+12
8.562570e+01 2.727000e+12
8.587570e+01 2.714000e+12
8.612580e+01 2.701000e+12
8.637590e+01 2.688000e+12
8.662600e+01 2.675000e+12
8.687600e+01 2.662000e+12
8.712610e+01 2.649000e+12
8.737620e+01 2.637000e+12
8.762630e+01 2.624000e+12
8.787630e+01 2.612000e+12
8.812640e+01 2.599000e+12
8.837650e+01 2.586000e+12
8.862660e+01 2.574000e+12
8.887660e+01 2.562000e+12
8.912670e+01 2.549000e+12
8.937680e+01 2.537000e+12
8.962690e+01 2.525000e+12
8.987690e+01 2.513000e+12
9.012700e+01 2.500000e+12
9.037710e+01 2.488000e+12
9.062720e+01 2.476000e+12
9.087720e+01 2.464000e+12
9.112730e+01 2.452000e+12
9.137740e+01 2.441000e+12
9.162750e+01 2.429000e+12
9.187750e+01 2.417000e+12
9.212760e+01 2.405000e+12
9.237770e+01 2.394000e+12
9.262780e+01 2.382000e+12
9.287780e+01 2.370000e+12
9.312790e+01 2.359000e+12
9.337800e+01 2.348000e+12
9.362810e+01 2.336000e+12
9.387810e+01 2.325000e+12
9.412820e+01 2.313000e+12
9.437830e+01 2.302000e+12
9.462840e+01 2.291000e+12
9.487840e+01 2.280000e+12
9.512850e+01 2.269000e+12
9.537860e+01 2.258000e+12
9.562870e+01 2.247000e+12
9.587870e+01 2.236000e+12
9.612880e+01 2.225000e+12
9.637890e+01 2.214000e+12
9.662900e+01 2.203000e+12
9.687900e+01 2.192000e+12
9.712910e+01 2.181000e+12
9.737920e+01 2.171000e+12
9.762930e+01 2.160000e+12
9.787930e+01 2.150000e+12
9.812940e+01 2.139000e+12
9.837950e+01 2.129000e+12
9.862960e+01 2.118000e+12
9.887960e+01 2.108000e+12
9.912970e+01 2.097000e+12
9.937980e+01 2.087000e+12
9.962990e+01 2.077000e+12
9.987990e+01 2.067000e+12
1.001300e+02 2.056000e+12
1.003800e+02 2.046000e+12
1.006300e+02 2.036000e+12
1.008800e+02 2.026000e+12
1.011300e+02 2.016000e+12
1.013800e+02 2.006000e+12
1.016300e+02 1.996000e+12
1.018810e+02 1.987000e+12
1.021310e+02 1.977000e+12
1.023810e+02 1.967000e+12
1.026310e+02 1.957000e+12
1.028810e+02 1.948000e+12
1.031310e+02 1.938000e+12
1.033810e+02 1.928000e+12
1.036310e+02 1.919000e+12
1.038810e+02 1.909000e+12
1.041310e+02 1.900000e+12
1.043810e+02 1.890000e+12
1.046310e+02 1.881000e+12
1.048810e+02 1.872000e+12
1.051320e+02 1.863000e+12
1.053820e+02 1.853000e+12
1.056320e+02 1.844000e+12
1.058820e+02 1.835000e+12
1.061320e+02 1.826000e+12
1.063820e+02 1.817000e+12
1.066320e+02 1.808000e+12
1.068820e+02 1.799000e+12
1.071320e+02 1.790000e+12
1.073820e+02 1.781000e+12
1.076320e+02 1.772000e+12
1.078820e+02 1.763000e+12
1.081320e+02 1.754000e+12
1.083820e+02 1.746000e+12
1.086330e+02 1.737000e+12
1.088830e+02 1.728000e+12
1.091330e+02 1.720000e+12
1.093830e+02 1.711000e+12
1.096330e+02 1.703000e+12
1.098830e+02 1.694000e+12
1.101330e+02 1.686000e+12
1.103830e+02 1.677000e+12
1.106330e+02 1.669000e+12
1.108830e+02 1.660000e+12
1.111330e+02 1.652000e+12
1.113830e+02 1.644000e+12
1.116330e+02 1.636000e+12
1.118840e+02 1.628000e+12
1.121340e+02 1.619000e+12
1.123840e+02 1.611000e+12
1.126340e+02 1.603000e+12
1.128840e+02 1.595000e+12
1.131340e+02 1.587000e+12
1.133840e+02 1.579000e+12
1.136340e+02 1.571000e+12
1.138840e+02 1.563000e+12
1.141340e+02 1.556000e+12
1.143840e+02 1.548000e+12
1.146340e+02 1.540000e+12
1.148840e+02 1.532000e+12
1.151350e+02 1.525000e+12
1.153850e+02 1.517000e+12
1.156350e+02 1.509000e+12
1.158850e+02 1.502000e+12
1.161350e+02 1.494000e+12
1.163850e+02 1.487000e+12
1.166350e+02 1.479000e+12
1.168850e+02 1.472000e+12
1.171350e+02 1.464000e+12
1.173850e+02 1.457000e+12
1.176350e+02 1.450000e+12
1.178850e+02 1.442000e+12
1.181350e+02 1.435000e+12
1.183850e+02 1.428000e+12
1.186360e+02 1.421000e+12
1.188860e+02 1.413000e+12
1.191360e+02 1.406000e+12
1.193860e+02 1.399000e+12
1.196360e+02 1.392000e+12
1.198860e+02 1.385000e+12
1.201360e+02 1.378000e+12
1.203860e+02 1.371000e+12
1.206360e+02 1.364000e+12
1.208860e+02 1.357000e+12
1.211360e+02 1.350000e+12
1.213860e+02 1.343000e+12
1.216360e+02 1.337000e+12
1.218870e+02 1.330000e+12
1.221370e+02 1.323000e+12
1.223870e+02 1.316000e+12
1.226370e+02 1.310000e+12
1.228870e+02 1.303000e+12
1.231370e+02 1.297000e+12
1.233870e+02 1.290000e+12
1.236370e+02 1.283000e+12
1.238870e+02 1.277000e+12
1.241370e+02 1.270000e+12
1.243870e+02 1.264000e+12
1.246370e+02 1.258000e+12
1.248870e+02 1.251000e+12
1.251380e+02 1.245000e+12
1.253880e+02 1.239000e+12
1.256380e+02 1.232000e+12
1.258880e+02 1.226000e+12
1.261380e+02 1.220000e+12
1.263880e+02 1.214000e+12
1.266380e+02 1.207000e+12
1.268880e+02 1.201000e+12
1.271380e+02 1.195000e+12
1.273880e+02 1.189000e+12
1.276380e+02 1.183000e+12
1.278880e+02 1.177000e+12
1.281380e+02 1.171000e+12
1.283880e+02 1.165000e+12
1.286390e+02 1.159000e+12
1.288890e+02 1.153000e+12
1.291390e+02 1.147000e+12
1.293890e+02 1.141000e+12
1.296390e+02 1.136000e+12
1.298890e+02 1.130000e+12
1.301390e+02 1.124000e+12
1.303890e+02 1.118000e+12
1.306390e+02 1.113000e+12
1.308890e+02 1.107000e+12
1.311390e+02 1.101000e+12
1.313890e+02 1.096000e+12
1.316390e+02 1.090000e+12
1.318900e+02 1.084000e+12
1.321400e+02 1.079000e+12
1.323900e+02 1.073000e+12
1.326400e+02 1.068000e+12
1.328900e+02 1.062000e+12
1.331400e+02 1.057000e+12
1.333900e+02 1.052000e+12
1.336400e+02 1.046000e+12
1.338900e+02 1.041000e+12
1.341400e+02 1.035000e+12
1.343900e+02 1.030000e+12
1.346400e+02 1.025000e+12
1.348900e+02 1.020000e+12
1.351410e+02 1.014000e+12
1.353910e+02 1.009000e+12
1.356410e+02 1.004000e+12
1.358910e+02 9.988000e+11
1.361410e+02 9.937000e+11
1.363910e+02 9.886000e+11
1.366410e+02 9.835000e+11
1.368910e+02 9.785000e+11
1.371410e+02 9.735000e+11
1.373910e+02 9.685000e+11
1.376410e+02 9.635000e+11
1.378910e+02 9.585000e+11
1.381410e+02 9.536000e+11
1.383910e+02 9.487000e+11
1.386420e+02 9.438000e+11
1.388920e+02 9.390000e+11
1.391420e+02 9.341000e+11
1.393920e+02 9.293000e+11
1.396420e+02 9.245000e+11
1.398920e+02 9.198000e+11
1.401420e+02 9.151000e+11
1.403920e+02 9.103000e+11
1.406420e+02 9.057000e+11
1.408920e+02 9.010000e+11
1.411420e+02 8.963000e+11
1.413920e+02 8.917000e+11
1.416420e+02 8.871000e+11
1.418930e+02 8.826000e+11
1.421430e+02 8.780000e+11
1.423930e+02 8.735000e+11
1.426430e+02 8.690000e+11
1.428930e+02 8.645000e+11
1.431430e+02 8.600000e+11
1.433930e+02 8.556000e+11
1.436430e+02 8.512000e+11
1.438930e+02 8.468000e+11
1.441430e+02 8.424000e+11
1.443930e+02 8.380000e+11
1.446430e+02 8.337000e+11
1.448930e+02 8.294000e+11
1.451440e+02 8.251000e+11
1.453940e+02 8.208000e+11
1.456440e+02 8.166000e+11
1.458940e+02 8.124000e+11
1.461440e+02 8.082000e+11
1.463940e+02 8.040000e+11
1.466440e+02 7.998000e+11
1.468940e+02 7.957000e+11
1.471440e+02 7.916000e+11
1.473940e+02 7.875000e+11
1.476440e+02 7.834000e+11
1.478940e+02 7.793000e+11
1.481440e+02 7.753000e+11
1.483940e+02 7.713000e+11
1.486450e+02 7.673000e+11
1.488950e+02 7.633000e+11
1.491450e+02 7.594000e+11
1.493950e+02 7.554000e+11
1.496450e+02 7.515000e+11
1.498950e+02 7.476000e+11
1.501450e+02 7.437000e+11
1.503950e+02 7.399000e+11
1.506450e+02 7.360000e+11
1.508950e+02 7.322000e+11
1.511450e+02 7.284000e+11
1.513950e+02 7.246000e+11
1.516450e+02 7.209000e+11
1.518960e+02 7.171000e+11
1.521460e+02 7.134000e+11
1.523960e+02 7.097000e+11
1.526460e+02 7.060000e+11
1.528960e+02 7.023000e+11
1.531460e+02 6.987000e+11
1.533960e+02 6.950000e+11
1.536460e+02 6.914000e+11
1.538960e+02 6.878000e+11
1.541460e+02 6.843000e+11
1.543960e+02 6.807000e+11
1.546460e+02 6.772000e+11
1.548960e+02 6.736000e+11
1.551470e+02 6.701000e+11
1.553970e+02 6.666000e+11
1.556470e+02 6.632000e+11
1.558970e+02 6.597000e+11
1.561470e+02 6.563000e+11
1.563970e+02 6.529000e+11
1.566470e+02 6.495000e+11
1.568970e+02 6.461000e+11
1.571470e+02 6.427000e+11
1.573970e+02 6.394000e+11
1.576470e+02 6.360000e+11
1.578970e+02 6.327000e+11
1.581470e+02 6.294000e+11
1.583970e+02 6.261000e+11
1.586480e+02 6.229000e+11
1.588980e+02 6.196000e+11
1.591480e+02 6.164000e+11
1.593980e+02 6.132000e+11
1.596480e+02 6.100000e+11
1.598980e+02 6.068000e+11
1.601480e+02 6.036000e+11
1.603980e+02 6.005000e+11
1.606480e+02 5.973000e+11
1.608980e+02 5.942000e+11
1.611480e+02 5.911000e+11
1.613980e+02 5.880000e+11
1.616480e+02 5.849000e+11
1.618990e+02 5.819000e+11
1.621490e+02 5.788000e+11
1.623990e+02 5.758000e+11
1.626490e+02 5.728000e+11
1.628990e+02 5.698000e+11
1.631490e+02 5.668000e+11
1.633990e+02 5.638000e+11
1.636490e+02 5.609000e+11
1.638990e+02 5.580000e+11
1.641490e+02 5.550000e+11
1.643990e+02 5.521000e+11
1.646490e+02 5.492000e+11
1.648990e+02 5.464000e+11
1.651500e+02 5.435000e+11
1.654000e+02 5.407000e+11
1.656500e+02 5.378000e+11
1.659000e+02 5.350000e+11
1.661500e+02 5.322000e+11
1.664000e+02 5.294000e+11
1.666500e+02 5.266000e+11
1.669000e+02 5.239000e+11
1.671500e+02 5.211000e+11
1.674000e+02 5.184000e+11
1.676500e+02 5.157000e+11
1.679000e+02 5.130000e+11
1.681500e+02 5.103000e+11
1.684010e+02 5.076000e+11
1.686510e+02 5.049000e+11
1.689010e+02 5.023000e+11
1.691510e+02 4.997000e+11
1.694010e+02 4.970000e+11
1.696510e+02 4.944000e+11
1.699010e+02 4.918000e+11
1.701510e+02 4.892000e+11
1.704010e+02 4.867000e+11
1.706510e+02 4.841000e+11
1.709010e+02 4.816000e+11
1.711510e+02 4.790000e+11
1.714010e+02 4.765000e+11
1.716510e+02 4.740000e+11
1.719020e+02 4.715000e+11
1.721520e+02 4.691000e+11
1.724020e+02 4.666000e+11
1.726520e+02 4.641000e+11
1.729020e+02 4.617000e+11
1.731520e+02 4.593000e+11
1.734020e+02 4.568000e+11
1.736520e+02 4.544000e+11
1.739020e+02 4.521000e+11
1.741520e+02 4.497000e+11
1.744020e+02 4.473000e+11
1.746520e+02 4.450000e+11
1.749020e+02 4.426000e+11
1.751530e+02 4.403000e+11
1.754030e+02 4.380000e+11
1.756530e+02 4.357000e+11
1.759030e+02 4.334000e+11
1.761530e+02 4.311000e+11
1.764030e+02 4.288000e+11
1.766530e+02 4.265000e+11
1.769030e+02 4.243000e+11
1.771530e+02 4.221000e+11
1.774030e+02 4.198000e+11
1.776530e+02 4.176000e+11
1.779030e+02 4.154000e+11
1.781530e+02 4.132000e+11
1.784040e+02 4.110000e+11
1.786540e+02 4.089000e+11
1.789040e+02 4.067000e+11
1.791540e+02 4.046000e+11
1.794040e+02 4.024000e+11
1.796540e+02 4.003000e+11
1.799040e+02 3.982000e+11
1.801540e+02 3.961000e+11
1.804040e+02 3.940000e+11
1.806540e+02 3.919000e+11
1.809040e+02 3.899000e+11
1.811540e+02 3.878000e+11
1.814040e+02 3.858000e+11
1.816540e+02 3.837000e+11
1.819050e+02 3.817000e+11
1.821550e+02 3.797000e+11
1.824050e+02 3.777000e+11
1.826550e+02 3.757000e+11
1.829050e+02 3.737000e+11
1.831550e+02 3.717000e+11
1.834050e+02 3.697000e+11
1.836550e+02 3.678000e+11
1.839050e+02 3.658000e+11
1.841550e+02 3.639000e+11
1.844050e+02 3.620000e+11
1.846550e+02 3.601000e+11
1.849050e+02 3.582000e+11
1.851560e+02 3.563000e+11
1.854060e+02 3.544000e+11
1.856560e+02 3.525000e+11
1.859060e+02 3.506000e+11
1.861560e+02 3.488000e+11
1.864060e+02 3.469000e+11
1.866560e+02 3.451000e+11
1.869060e+02 3.433000e+11
1.871560e+02 3.414000e+11
1.874060e+02 3.396000e+11
1.876560e+02 3.378000e+11
1.879060e+02 3.361000e+11
1.881560e+02 3.343000e+11
1.884070e+02 3.325000e+11
1.886570e+02 3.307000e+11
1.889070e+02 3.290000e+11
1.891570e+02 3.272000e+11
1.894070e+02 3.255000e+11
1.896570e+02 3.238000e+11
1.899070e+02 3.221000e+11
1.901570e+02 3.204000e+11
1.904070e+02 3.187000e+11
1.906570e+02 3.170000e+11
1.909070e+02 3.153000e+11
1.911570e+02 3.136000e+11
1.914070e+02 3.119000e+11
