# Energy [keV], Flux[ph/s/0.1%/100mA] - BC FE acceptance: 1.23 x 0.39 mrad²
1.000000e-01 3.109000e+11
3.500750e-01 7.249000e+11
6.001500e-01 1.045000e+12
8.502250e-01 1.323000e+12
1.100300e+00 1.574000e+12
1.350380e+00 1.806000e+12
1.600450e+00 2.022000e+12
1.850530e+00 2.226000e+12
2.100600e+00 2.418000e+12
2.350680e+00 2.602000e+12
2.600750e+00 2.776000e+12
2.850830e+00 2.943000e+12
3.100900e+00 3.103000e+12
3.350980e+00 3.257000e+12
3.601050e+00 3.404000e+12
3.851130e+00 3.545000e+12
4.101200e+00 3.682000e+12
4.351280e+00 3.813000e+12
4.601350e+00 3.939000e+12
4.851430e+00 4.061000e+12
5.101500e+00 4.178000e+12
5.351580e+00 4.291000e+12
5.601650e+00 4.400000e+12
5.851730e+00 4.506000e+12
6.101800e+00 4.607000e+12
6.351880e+00 4.705000e+12
6.601950e+00 4.800000e+12
6.852030e+00 4.891000e+12
7.102100e+00 4.980000e+12
7.352180e+00 5.065000e+12
7.602250e+00 5.147000e+12
7.852330e+00 5.226000e+12
8.102400e+00 5.303000e+12
8.352480e+00 5.376000e+12
8.602550e+00 5.447000e+12
8.852630e+00 5.516000e+12
9.102700e+00 5.582000e+12
9.352780e+00 5.646000e+12
9.602850e+00 5.707000e+12
9.852930e+00 5.767000e+12
1.010300e+01 5.823000e+12
1.035310e+01 5.878000e+12
1.060320e+01 5.931000e+12
1.085320e+01 5.982000e+12
1.110330e+01 6.031000e+12
1.135340e+01 6.077000e+12
1.160350e+01 6.122000e+12
1.185350e+01 6.166000e+12
1.210360e+01 6.207000e+12
1.235370e+01 6.247000e+12
1.260380e+01 6.285000e+12
1.285380e+01 6.321000e+12
1.310390e+01 6.356000e+12
1.335400e+01 6.389000e+12
1.360410e+01 6.421000e+12
1.385410e+01 6.452000e+12
1.410420e+01 6.480000e+12
1.435430e+01 6.508000e+12
1.460440e+01 6.534000e+12
1.485440e+01 6.559000e+12
1.510450e+01 6.583000e+12
1.535460e+01 6.605000e+12
1.560470e+01 6.626000e+12
1.585470e+01 6.646000e+12
1.610480e+01 6.665000e+12
1.635490e+01 6.682000e+12
1.660500e+01 6.699000e+12
1.685500e+01 6.714000e+12
1.710510e+01 6.728000e+12
1.735520e+01 6.742000e+12
1.760530e+01 6.754000e+12
1.785530e+01 6.765000e+12
1.810540e+01 6.776000e+12
1.835550e+01 6.785000e+12
1.860560e+01 6.794000e+12
1.885560e+01 6.802000e+12
1.910570e+01 6.809000e+12
1.935580e+01 6.815000e+12
1.960590e+01 6.820000e+12
1.985590e+01 6.824000e+12
2.010600e+01 6.828000e+12
2.035610e+01 6.831000e+12
2.060620e+01 6.833000e+12
2.085620e+01 6.835000e+12
2.110630e+01 6.835000e+12
2.135640e+01 6.835000e+12
2.160650e+01 6.835000e+12
2.185650e+01 6.834000e+12
2.210660e+01 6.832000e+12
2.235670e+01 6.829000e+12
2.260680e+01 6.826000e+12
2.285680e+01 6.823000e+12
2.310690e+01 6.818000e+12
2.335700e+01 6.814000e+12
2.360710e+01 6.808000e+12
2.385710e+01 6.803000e+12
2.410720e+01 6.796000e+12
2.435730e+01 6.789000e+12
2.460740e+01 6.782000e+12
2.485740e+01 6.774000e+12
2.510750e+01 6.766000e+12
2.535760e+01 6.757000e+12
2.560770e+01 6.748000e+12
2.585770e+01 6.739000e+12
2.610780e+01 6.729000e+12
2.635790e+01 6.719000e+12
2.660800e+01 6.708000e+12
2.685800e+01 6.697000e+12
2.710810e+01 6.685000e+12
2.735820e+01 6.673000e+12
2.760830e+01 6.661000e+12
2.785830e+01 6.649000e+12
2.810840e+01 6.636000e+12
2.835850e+01 6.623000e+12
2.860860e+01 6.609000e+12
2.885860e+01 6.595000e+12
2.910870e+01 6.581000e+12
2.935880e+01 6.567000e+12
2.960890e+01 6.552000e+12
2.985890e+01 6.538000e+12
3.010900e+01 6.522000e+12
3.035910e+01 6.507000e+12
3.060920e+01 6.491000e+12
3.085920e+01 6.475000e+12
3.110930e+01 6.459000e+12
3.135940e+01 6.443000e+12
3.160950e+01 6.426000e+12
3.185950e+01 6.410000e+12
3.210960e+01 6.393000e+12
3.235970e+01 6.376000e+12
3.260980e+01 6.358000e+12
3.285980e+01 6.341000e+12
3.310990e+01 6.323000e+12
3.336000e+01 6.305000e+12
3.361010e+01 6.287000e+12
3.386010e+01 6.269000e+12
3.411020e+01 6.251000e+12
3.436030e+01 6.232000e+12
3.461040e+01 6.213000e+12
3.486040e+01 6.195000e+12
3.511050e+01 6.176000e+12
3.536060e+01 6.157000e+12
3.561070e+01 6.137000e+12
3.586070e+01 6.118000e+12
3.611080e+01 6.099000e+12
3.636090e+01 6.079000e+12
3.661100e+01 6.060000e+12
3.686100e+01 6.040000e+12
3.711110e+01 6.020000e+12
3.736120e+01 6.000000e+12
3.761130e+01 5.980000e+12
3.786130e+01 5.960000e+12
3.811140e+01 5.940000e+12
3.836150e+01 5.920000e+12
3.861160e+01 5.899000e+12
3.886160e+01 5.879000e+12
3.911170e+01 5.858000e+12
3.936180e+01 5.838000e+12
3.961190e+01 5.817000e+12
3.986190e+01 5.797000e+12
4.011200e+01 5.776000e+12
4.036210e+01 5.755000e+12
4.061220e+01 5.734000e+12
4.086220e+01 5.714000e+12
4.111230e+01 5.693000e+12
4.136240e+01 5.672000e+12
4.161250e+01 5.651000e+12
4.186250e+01 5.630000e+12
4.211260e+01 5.609000e+12
4.236270e+01 5.588000e+12
4.261280e+01 5.567000e+12
4.286280e+01 5.546000e+12
4.311290e+01 5.525000e+12
4.336300e+01 5.503000e+12
4.361310e+01 5.482000e+12
4.386310e+01 5.461000e+12
4.411320e+01 5.440000e+12
4.436330e+01 5.419000e+12
4.461340e+01 5.398000e+12
4.486340e+01 5.376000e+12
4.511350e+01 5.355000e+12
4.536360e+01 5.334000e+12
4.561370e+01 5.313000e+12
4.586370e+01 5.292000e+12
4.611380e+01 5.270000e+12
4.636390e+01 5.249000e+12
4.661400e+01 5.228000e+12
4.686400e+01 5.207000e+12
4.711410e+01 5.186000e+12
4.736420e+01 5.165000e+12
4.761430e+01 5.143000e+12
4.786430e+01 5.122000e+12
4.811440e+01 5.101000e+12
4.836450e+01 5.080000e+12
4.861460e+01 5.059000e+12
4.886460e+01 5.038000e+12
4.911470e+01 5.017000e+12
4.936480e+01 4.996000e+12
4.961490e+01 4.975000e+12
4.986490e+01 4.954000e+12
5.011500e+01 4.933000e+12
5.036510e+01 4.913000e+12
5.061520e+01 4.892000e+12
5.086520e+01 4.871000e+12
5.111530e+01 4.850000e+12
5.136540e+01 4.829000e+12
5.161550e+01 4.809000e+12
5.186550e+01 4.788000e+12
5.211560e+01 4.767000e+12
5.236570e+01 4.747000e+12
5.261580e+01 4.726000e+12
5.286580e+01 4.706000e+12
5.311590e+01 4.685000e+12
5.336600e+01 4.665000e+12
5.361610e+01 4.644000e+12
5.386610e+01 4.624000e+12
5.411620e+01 4.604000e+12
5.436630e+01 4.583000e+12
5.461640e+01 4.563000e+12
5.486640e+01 4.543000e+12
5.511650e+01 4.523000e+12
5.536660e+01 4.503000e+12
5.561670e+01 4.483000e+12
5.586670e+01 4.463000e+12
5.611680e+01 4.443000e+12
5.636690e+01 4.423000e+12
5.661700e+01 4.403000e+12
5.686700e+01 4.383000e+12
5.711710e+01 4.364000e+12
5.736720e+01 4.344000e+12
5.761730e+01 4.324000e+12
5.786730e+01 4.305000e+12
5.811740e+01 4.285000e+12
5.836750e+01 4.266000e+12
5.861760e+01 4.246000e+12
5.886760e+01 4.227000e+12
5.911770e+01 4.208000e+12
5.936780e+01 4.189000e+12
5.961790e+01 4.169000e+12
5.986790e+01 4.150000e+12
6.011800e+01 4.131000e+12
6.036810e+01 4.112000e+12
6.061820e+01 4.093000e+12
6.086820e+01 4.074000e+12
6.111830e+01 4.055000e+12
6.136840e+01 4.037000e+12
6.161850e+01 4.018000e+12
6.186850e+01 3.999000e+12
6.211860e+01 3.981000e+12
6.236870e+01 3.962000e+12
6.261880e+01 3.944000e+12
6.286880e+01 3.925000e+12
6.311890e+01 3.907000e+12
6.336900e+01 3.889000e+12
6.361910e+01 3.870000e+12
6.386910e+01 3.852000e+12
6.411920e+01 3.834000e+12
6.436930e+01 3.816000e+12
6.461940e+01 3.798000e+12
6.486940e+01 3.780000e+12
6.511950e+01 3.762000e+12
6.536960e+01 3.745000e+12
6.561970e+01 3.727000e+12
6.586970e+01 3.709000e+12
6.611980e+01 3.692000e+12
6.636990e+01 3.674000e+12
6.662000e+01 3.656000e+12
6.687000e+01 3.639000e+12
6.712010e+01 3.622000e+12
6.737020e+01 3.604000e+12
6.762030e+01 3.587000e+12
6.787030e+01 3.570000e+12
6.812040e+01 3.553000e+12
6.837050e+01 3.536000e+12
6.862060e+01 3.519000e+12
6.887060e+01 3.502000e+12
6.912070e+01 3.485000e+12
6.937080e+01 3.468000e+12
6.962090e+01 3.452000e+12
6.987090e+01 3.435000e+12
7.012100e+01 3.418000e+12
7.037110e+01 3.402000e+12
7.062120e+01 3.385000e+12
7.087120e+01 3.369000e+12
7.112130e+01 3.353000e+12
7.137140e+01 3.336000e+12
7.162150e+01 3.320000e+12
7.187150e+01 3.304000e+12
7.212160e+01 3.288000e+12
7.237170e+01 3.272000e+12
7.262180e+01 3.256000e+12
7.287180e+01 3.240000e+12
7.312190e+01 3.224000e+12
7.337200e+01 3.208000e+12
7.362210e+01 3.193000e+12
7.387210e+01 3.177000e+12
7.412220e+01 3.161000e+12
7.437230e+01 3.146000e+12
7.462240e+01 3.130000e+12
7.487240e+01 3.115000e+12
7.512250e+01 3.100000e+12
7.537260e+01 3.084000e+12
7.562270e+01 3.069000e+12
7.587270e+01 3.054000e+12
7.612280e+01 3.039000e+12
7.637290e+01 3.024000e+12
7.662300e+01 3.009000e+12
7.687300e+01 2.994000e+12
7.712310e+01 2.979000e+12
7.737320e+01 2.965000e+12
7.762330e+01 2.950000e+12
7.787330e+01 2.935000e+12
7.812340e+01 2.921000e+12
7.837350e+01 2.906000e+12
7.862360e+01 2.892000e+12
7.887360e+01 2.877000e+12
7.912370e+01 2.863000e+12
7.937380e+01 2.849000e+12
7.962390e+01 2.835000e+12
7.987390e+01 2.820000e+12
8.012400e+01 2.806000e+12
8.037410e+01 2.792000e+12
8.062420e+01 2.778000e+12
8.087420e+01 2.764000e+12
8.112430e+01 2.751000e+12
8.137440e+01 2.737000e+12
8.162450e+01 2.723000e+12
8.187450e+01 2.709000e+12
8.212460e+01 2.696000e+12
8.237470e+01 2.682000e+12
8.262480e+01 2.669000e+12
8.287480e+01 2.655000e+12
8.312490e+01 2.642000e+12
8.337500e+01 2.629000e+12
8.362510e+01 2.615000e+12
8.387510e+01 2.602000e+12
8.412520e+01 2.589000e+12
8.437530e+01 2.576000e+12
8.462540e+01 2.563000e+12
8.487540e+01 2.550000e+12
8.512550e+01 2.537000e+12
8.537560e+01 2.524000e+12
8.562570e+01 2.511000e+12
8.587570e+01 2.499000e+12
8.612580e+01 2.486000e+12
8.637590e+01 2.473000e+12
8.662600e+01 2.461000e+12
8.687600e+01 2.448000e+12
8.712610e+01 2.436000e+12
8.737620e+01 2.424000e+12
8.762630e+01 2.411000e+12
8.787630e+01 2.399000e+12
8.812640e+01 2.387000e+12
8.837650e+01 2.375000e+12
8.862660e+01 2.362000e+12
8.887660e+01 2.350000e+12
8.912670e+01 2.338000e+12
8.937680e+01 2.327000e+12
8.962690e+01 2.315000e+12
8.987690e+01 2.303000e+12
9.012700e+01 2.291000e+12
9.037710e+01 2.279000e+12
9.062720e+01 2.268000e+12
9.087720e+01 2.256000e+12
9.112730e+01 2.244000e+12
9.137740e+01 2.233000e+12
9.162750e+01 2.221000e+12
9.187750e+01 2.210000e+12
9.212760e+01 2.199000e+12
9.237770e+01 2.187000e+12
9.262780e+01 2.176000e+12
9.287780e+01 2.165000e+12
9.312790e+01 2.154000e+12
9.337800e+01 2.143000e+12
9.362810e+01 2.132000e+12
9.387810e+01 2.121000e+12
9.412820e+01 2.110000e+12
9.437830e+01 2.099000e+12
9.462840e+01 2.088000e+12
9.487840e+01 2.077000e+12
9.512850e+01 2.067000e+12
9.537860e+01 2.056000e+12
9.562870e+01 2.045000e+12
9.587870e+01 2.035000e+12
9.612880e+01 2.024000e+12
9.637890e+01 2.014000e+12
9.662900e+01 2.003000e+12
9.687900e+01 1.993000e+12
9.712910e+01 1.983000e+12
9.737920e+01 1.972000e+12
9.762930e+01 1.962000e+12
9.787930e+01 1.952000e+12
9.812940e+01 1.942000e+12
9.837950e+01 1.932000e+12
9.862960e+01 1.922000e+12
9.887960e+01 1.912000e+12
9.912970e+01 1.902000e+12
9.937980e+01 1.892000e+12
9.962990e+01 1.882000e+12
9.987990e+01 1.872000e+12
1.001300e+02 1.863000e+12
1.003800e+02 1.853000e+12
1.006300e+02 1.843000e+12
1.008800e+02 1.834000e+12
1.011300e+02 1.824000e+12
1.013800e+02 1.815000e+12
1.016300e+02 1.805000e+12
1.018810e+02 1.796000e+12
1.021310e+02 1.786000e+12
1.023810e+02 1.777000e+12
1.026310e+02 1.768000e+12
1.028810e+02 1.758000e+12
1.031310e+02 1.749000e+12
1.033810e+02 1.740000e+12
1.036310e+02 1.731000e+12
1.038810e+02 1.722000e+12
1.041310e+02 1.713000e+12
1.043810e+02 1.704000e+12
1.046310e+02 1.695000e+12
1.048810e+02 1.686000e+12
1.051320e+02 1.677000e+12
1.053820e+02 1.669000e+12
1.056320e+02 1.660000e+12
1.058820e+02 1.651000e+12
1.061320e+02 1.642000e+12
1.063820e+02 1.634000e+12
1.066320e+02 1.625000e+12
1.068820e+02 1.617000e+12
1.071320e+02 1.608000e+12
1.073820e+02 1.600000e+12
1.076320e+02 1.591000e+12
1.078820e+02 1.583000e+12
1.081320e+02 1.575000e+12
1.083820e+02 1.566000e+12
1.086330e+02 1.558000e+12
1.088830e+02 1.550000e+12
1.091330e+02 1.542000e+12
1.093830e+02 1.533000e+12
1.096330e+02 1.525000e+12
1.098830e+02 1.517000e+12
1.101330e+02 1.509000e+12
1.103830e+02 1.501000e+12
1.106330e+02 1.493000e+12
1.108830e+02 1.486000e+12
1.111330e+02 1.478000e+12
1.113830e+02 1.470000e+12
1.116330e+02 1.462000e+12
1.118840e+02 1.454000e+12
1.121340e+02 1.447000e+12
1.123840e+02 1.439000e+12
1.126340e+02 1.431000e+12
1.128840e+02 1.424000e+12
1.131340e+02 1.416000e+12
1.133840e+02 1.409000e+12
1.136340e+02 1.401000e+12
1.138840e+02 1.394000e+12
1.141340e+02 1.386000e+12
1.143840e+02 1.379000e+12
1.146340e+02 1.372000e+12
1.148840e+02 1.365000e+12
1.151350e+02 1.357000e+12
1.153850e+02 1.350000e+12
1.156350e+02 1.343000e+12
1.158850e+02 1.336000e+12
1.161350e+02 1.329000e+12
1.163850e+02 1.322000e+12
1.166350e+02 1.315000e+12
1.168850e+02 1.308000e+12
1.171350e+02 1.301000e+12
1.173850e+02 1.294000e+12
1.176350e+02 1.287000e+12
1.178850e+02 1.280000e+12
1.181350e+02 1.273000e+12
1.183850e+02 1.266000e+12
1.186360e+02 1.260000e+12
1.188860e+02 1.253000e+12
1.191360e+02 1.246000e+12
1.193860e+02 1.240000e+12
1.196360e+02 1.233000e+12
1.198860e+02 1.226000e+12
1.201360e+02 1.220000e+12
1.203860e+02 1.213000e+12
1.206360e+02 1.207000e+12
1.208860e+02 1.200000e+12
1.211360e+02 1.194000e+12
1.213860e+02 1.188000e+12
1.216360e+02 1.181000e+12
1.218870e+02 1.175000e+12
1.221370e+02 1.169000e+12
1.223870e+02 1.162000e+12
1.226370e+02 1.156000e+12
1.228870e+02 1.150000e+12
1.231370e+02 1.144000e+12
1.233870e+02 1.138000e+12
1.236370e+02 1.132000e+12
1.238870e+02 1.126000e+12
1.241370e+02 1.119000e+12
1.243870e+02 1.113000e+12
1.246370e+02 1.108000e+12
1.248870e+02 1.102000e+12
1.251380e+02 1.096000e+12
1.253880e+02 1.090000e+12
1.256380e+02 1.084000e+12
1.258880e+02 1.078000e+12
1.261380e+02 1.072000e+12
1.263880e+02 1.067000e+12
1.266380e+02 1.061000e+12
1.268880e+02 1.055000e+12
1.271380e+02 1.049000e+12
1.273880e+02 1.044000e+12
1.276380e+02 1.038000e+12
1.278880e+02 1.033000e+12
1.281380e+02 1.027000e+12
1.283880e+02 1.022000e+12
1.286390e+02 1.016000e+12
1.288890e+02 1.011000e+12
1.291390e+02 1.005000e+12
1.293890e+02 9.997000e+11
1.296390e+02 9.943000e+11
1.298890e+02 9.890000e+11
1.301390e+02 9.836000e+11
1.303890e+02 9.783000e+11
1.306390e+02 9.731000e+11
1.308890e+02 9.678000e+11
1.311390e+02 9.626000e+11
1.313890e+02 9.574000e+11
1.316390e+02 9.522000e+11
1.318900e+02 9.471000e+11
1.321400e+02 9.420000e+11
1.323900e+02 9.369000e+11
1.326400e+02 9.318000e+11
1.328900e+02 9.268000e+11
1.331400e+02 9.218000e+11
1.333900e+02 9.168000e+11
1.336400e+02 9.118000e+11
1.338900e+02 9.069000e+11
1.341400e+02 9.020000e+11
1.343900e+02 8.971000e+11
1.346400e+02 8.923000e+11
1.348900e+02 8.874000e+11
1.351410e+02 8.826000e+11
1.353910e+02 8.779000e+11
1.356410e+02 8.731000e+11
1.358910e+02 8.684000e+11
1.361410e+02 8.637000e+11
1.363910e+02 8.590000e+11
1.366410e+02 8.543000e+11
1.368910e+02 8.497000e+11
1.371410e+02 8.451000e+11
1.373910e+02 8.405000e+11
1.376410e+02 8.360000e+11
1.378910e+02 8.314000e+11
1.381410e+02 8.269000e+11
1.383910e+02 8.224000e+11
1.386420e+02 8.180000e+11
1.388920e+02 8.135000e+11
1.391420e+02 8.091000e+11
1.393920e+02 8.047000e+11
1.396420e+02 8.003000e+11
1.398920e+02 7.960000e+11
1.401420e+02 7.917000e+11
1.403920e+02 7.874000e+11
1.406420e+02 7.831000e+11
1.408920e+02 7.788000e+11
1.411420e+02 7.746000e+11
1.413920e+02 7.704000e+11
1.416420e+02 7.662000e+11
1.418930e+02 7.620000e+11
1.421430e+02 7.579000e+11
1.423930e+02 7.537000e+11
1.426430e+02 7.496000e+11
1.428930e+02 7.456000e+11
1.431430e+02 7.415000e+11
1.433930e+02 7.375000e+11
1.436430e+02 7.334000e+11
1.438930e+02 7.294000e+11
1.441430e+02 7.255000e+11
1.443930e+02 7.215000e+11
1.446430e+02 7.176000e+11
1.448930e+02 7.137000e+11
1.451440e+02 7.098000e+11
1.453940e+02 7.059000e+11
1.456440e+02 7.020000e+11
1.458940e+02 6.982000e+11
1.461440e+02 6.944000e+11
1.463940e+02 6.906000e+11
1.466440e+02 6.868000e+11
1.468940e+02 6.831000e+11
1.471440e+02 6.794000e+11
1.473940e+02 6.757000e+11
1.476440e+02 6.720000e+11
1.478940e+02 6.683000e+11
1.481440e+02 6.646000e+11
1.483940e+02 6.610000e+11
1.486450e+02 6.574000e+11
1.488950e+02 6.538000e+11
1.491450e+02 6.502000e+11
1.493950e+02 6.467000e+11
1.496450e+02 6.431000e+11
1.498950e+02 6.396000e+11
1.501450e+02 6.361000e+11
1.503950e+02 6.326000e+11
1.506450e+02 6.292000e+11
1.508950e+02 6.257000e+11
1.511450e+02 6.223000e+11
1.513950e+02 6.189000e+11
1.516450e+02 6.155000e+11
1.518960e+02 6.121000e+11
1.521460e+02 6.088000e+11
1.523960e+02 6.054000e+11
1.526460e+02 6.021000e+11
1.528960e+02 5.988000e+11
1.531460e+02 5.955000e+11
1.533960e+02 5.923000e+11
1.536460e+02 5.890000e+11
1.538960e+02 5.858000e+11
1.541460e+02 5.826000e+11
1.543960e+02 5.794000e+11
1.546460e+02 5.762000e+11
1.548960e+02 5.730000e+11
1.551470e+02 5.699000e+11
1.553970e+02 5.667000e+11
1.556470e+02 5.636000e+11
1.558970e+02 5.605000e+11
1.561470e+02 5.575000e+11
1.563970e+02 5.544000e+11
1.566470e+02 5.513000e+11
1.568970e+02 5.483000e+11
1.571470e+02 5.453000e+11
1.573970e+02 5.423000e+11
1.576470e+02 5.393000e+11
1.578970e+02 5.364000e+11
1.581470e+02 5.334000e+11
1.583970e+02 5.305000e+11
1.586480e+02 5.275000e+11
1.588980e+02 5.246000e+11
1.591480e+02 5.218000e+11
1.593980e+02 5.189000e+11
1.596480e+02 5.160000e+11
1.598980e+02 5.132000e+11
1.601480e+02 5.104000e+11
1.603980e+02 5.075000e+11
1.606480e+02 5.048000e+11
1.608980e+02 5.020000e+11
1.611480e+02 4.992000e+11
1.613980e+02 4.965000e+11
1.616480e+02 4.937000e+11
1.618990e+02 4.910000e+11
1.621490e+02 4.883000e+11
1.623990e+02 4.856000e+11
1.626490e+02 4.829000e+11
1.628990e+02 4.803000e+11
1.631490e+02 4.776000e+11
1.633990e+02 4.750000e+11
1.636490e+02 4.723000e+11
1.638990e+02 4.697000e+11
1.641490e+02 4.671000e+11
1.643990e+02 4.646000e+11
1.646490e+02 4.620000e+11
1.648990e+02 4.595000e+11
1.651500e+02 4.569000e+11
1.654000e+02 4.544000e+11
1.656500e+02 4.519000e+11
1.659000e+02 4.494000e+11
1.661500e+02 4.469000e+11
1.664000e+02 4.444000e+11
1.666500e+02 4.420000e+11
1.669000e+02 4.395000e+11
1.671500e+02 4.371000e+11
1.674000e+02 4.347000e+11
1.676500e+02 4.323000e+11
1.679000e+02 4.299000e+11
1.681500e+02 4.275000e+11
1.684010e+02 4.251000e+11
1.686510e+02 4.228000e+11
1.689010e+02 4.205000e+11
1.691510e+02 4.181000e+11
1.694010e+02 4.158000e+11
1.696510e+02 4.135000e+11
1.699010e+02 4.112000e+11
1.701510e+02 4.089000e+11
1.704010e+02 4.067000e+11
1.706510e+02 4.044000e+11
1.709010e+02 4.022000e+11
1.711510e+02 4.000000e+11
1.714010e+02 3.977000e+11
1.716510e+02 3.955000e+11
1.719020e+02 3.933000e+11
1.721520e+02 3.912000e+11
1.724020e+02 3.890000e+11
1.726520e+02 3.868000e+11
1.729020e+02 3.847000e+11
1.731520e+02 3.826000e+11
1.734020e+02 3.804000e+11
1.736520e+02 3.783000e+11
1.739020e+02 3.762000e+11
1.741520e+02 3.741000e+11
1.744020e+02 3.721000e+11
1.746520e+02 3.700000e+11
1.749020e+02 3.679000e+11
1.751530e+02 3.659000e+11
1.754030e+02 3.639000e+11
1.756530e+02 3.618000e+11
1.759030e+02 3.598000e+11
1.761530e+02 3.578000e+11
1.764030e+02 3.559000e+11
1.766530e+02 3.539000e+11
1.769030e+02 3.519000e+11
1.771530e+02 3.500000e+11
1.774030e+02 3.480000e+11
1.776530e+02 3.461000e+11
1.779030e+02 3.441000e+11
1.781530e+02 3.422000e+11
1.784040e+02 3.403000e+11
1.786540e+02 3.384000e+11
1.789040e+02 3.366000e+11
1.791540e+02 3.347000e+11
1.794040e+02 3.328000e+11
1.796540e+02 3.310000e+11
1.799040e+02 3.291000e+11
1.801540e+02 3.273000e+11
1.804040e+02 3.255000e+11
1.806540e+02 3.237000e+11
1.809040e+02 3.219000e+11
1.811540e+02 3.201000e+11
1.814040e+02 3.183000e+11
1.816540e+02 3.165000e+11
1.819050e+02 3.148000e+11
1.821550e+02 3.130000e+11
1.824050e+02 3.113000e+11
1.826550e+02 3.095000e+11
1.829050e+02 3.078000e+11
1.831550e+02 3.061000e+11
1.834050e+02 3.044000e+11
1.836550e+02 3.027000e+11
1.839050e+02 3.010000e+11
1.841550e+02 2.993000e+11
1.844050e+02 2.976000e+11
1.846550e+02 2.960000e+11
1.849050e+02 2.943000e+11
1.851560e+02 2.927000e+11
1.854060e+02 2.911000e+11
1.856560e+02 2.894000e+11
1.859060e+02 2.878000e+11
1.861560e+02 2.862000e+11
1.864060e+02 2.846000e+11
1.866560e+02 2.830000e+11
1.869060e+02 2.814000e+11
1.871560e+02 2.799000e+11
1.874060e+02 2.783000e+11
1.876560e+02 2.768000e+11
1.879060e+02 2.752000e+11
1.881560e+02 2.737000e+11
1.884070e+02 2.721000e+11
1.886570e+02 2.706000e+11
1.889070e+02 2.691000e+11
1.891570e+02 2.676000e+11
1.894070e+02 2.661000e+11
1.896570e+02 2.646000e+11
1.899070e+02 2.631000e+11
1.901570e+02 2.617000e+11
1.904070e+02 2.602000e+11
1.906570e+02 2.588000e+11
1.909070e+02 2.573000e+11
1.911570e+02 2.559000e+11
1.914070e+02 2.544000e+11
