# energy[keV] vert_div_fwhm[mrad] vert_div_rms[mrad] flux[ph/s/0.1%/100mA]
1.000000e+00 6.616484e-01 1.955613e-01 3.383060e+12
2.000000e+00 6.615308e-01 1.935073e-01 5.274153e+12
3.000000e+00 6.612935e-01 1.902226e-01 6.653871e+12
4.000000e+00 6.609591e-01 1.864234e-01 7.691079e+12
5.000000e+00 6.605214e-01 1.823885e-01 8.477470e+12
6.000000e+00 6.574306e-01 1.782596e-01 9.073672e+12
7.000000e+00 6.186215e-01 1.741207e-01 9.522953e+12
8.000000e+00 5.862854e-01 1.700257e-01 9.857402e+12
9.000000e+00 5.586923e-01 1.660106e-01 1.010131e+13
1.000000e+01 5.347041e-01 1.621001e-01 1.027331e+13
1.100000e+01 5.135432e-01 1.583109e-01 1.038785e+13
1.200000e+01 4.946468e-01 1.546540e-01 1.045619e+13
1.300000e+01 4.776041e-01 1.511357e-01 1.048719e+13
1.400000e+01 4.621016e-01 1.477593e-01 1.048788e+13
1.500000e+01 4.478963e-01 1.445254e-01 1.046382e+13
1.600000e+01 4.347985e-01 1.414324e-01 1.041948e+13
1.700000e+01 4.226547e-01 1.384777e-01 1.035845e+13
1.800000e+01 4.113410e-01 1.356571e-01 1.028365e+13
1.900000e+01 4.007543e-01 1.329658e-01 1.019745e+13
2.000000e+01 3.908267e-01 1.303987e-01 1.010178e+13
2.100000e+01 3.815352e-01 1.279500e-01 9.998253e+12
2.200000e+01 3.728164e-01 1.256139e-01 9.888209e+12
2.300000e+01 3.646142e-01 1.233847e-01 9.772753e+12
2.400000e+01 3.568775e-01 1.212564e-01 9.652828e+12
2.500000e+01 3.495641e-01 1.192236e-01 9.529227e+12
2.600000e+01 3.426371e-01 1.172807e-01 9.402628e+12
2.700000e+01 3.360629e-01 1.154225e-01 9.273608e+12
2.800000e+01 3.298127e-01 1.136440e-01 9.142664e+12
2.900000e+01 3.238617e-01 1.119405e-01 9.010236e+12
3.000000e+01 3.181862e-01 1.103075e-01 8.876697e+12
3.100000e+01 3.127657e-01 1.087407e-01 8.742377e+12
3.200000e+01 3.075818e-01 1.072363e-01 8.607565e+12
3.300000e+01 3.026185e-01 1.057906e-01 8.472508e+12
3.400000e+01 2.978607e-01 1.044002e-01 8.337441e+12
3.500000e+01 2.932945e-01 1.030617e-01 8.202561e+12
3.600000e+01 2.889086e-01 1.017723e-01 8.068042e+12
3.700000e+01 2.846906e-01 1.005291e-01 7.934044e+12
3.800000e+01 2.806305e-01 9.932951e-02 7.800706e+12
3.900000e+01 2.767196e-01 9.817118e-02 7.668144e+12
4.000000e+01 2.729482e-01 9.705182e-02 7.536475e+12
4.100000e+01 2.693096e-01 9.596935e-02 7.405797e+12
4.200000e+01 2.657961e-01 9.492181e-02 7.276200e+12
4.300000e+01 2.624003e-01 9.390738e-02 7.147758e+12
4.400000e+01 2.591165e-01 9.292438e-02 7.020542e+12
4.500000e+01 2.559392e-01 9.197122e-02 6.894614e+12
4.600000e+01 2.528622e-01 9.104642e-02 6.770025e+12
4.700000e+01 2.498810e-01 9.014862e-02 6.646824e+12
4.800000e+01 2.469902e-01 8.927652e-02 6.525052e+12
4.900000e+01 2.441869e-01 8.842891e-02 6.404742e+12
5.000000e+01 2.414663e-01 8.760467e-02 6.285929e+12
5.100000e+01 2.388239e-01 8.680275e-02 6.168637e+12
5.200000e+01 2.362572e-01 8.602214e-02 6.052888e+12
5.300000e+01 2.337620e-01 8.526192e-02 5.938704e+12
5.400000e+01 2.313356e-01 8.452120e-02 5.826097e+12
5.500000e+01 2.289750e-01 8.379917e-02 5.715080e+12
5.600000e+01 2.266772e-01 8.309504e-02 5.605663e+12
5.700000e+01 2.244398e-01 8.240809e-02 5.497850e+12
5.800000e+01 2.222607e-01 8.173761e-02 5.391650e+12
5.900000e+01 2.201368e-01 8.108296e-02 5.287056e+12
6.000000e+01 2.180658e-01 8.044352e-02 5.184075e+12
6.100000e+01 2.160465e-01 7.981870e-02 5.082703e+12
6.200000e+01 2.140762e-01 7.920797e-02 4.982937e+12
6.300000e+01 2.121539e-01 7.861078e-02 4.884769e+12
6.400000e+01 2.102767e-01 7.802664e-02 4.788195e+12
6.500000e+01 2.084433e-01 7.745509e-02 4.693206e+12
6.600000e+01 2.066526e-01 7.689567e-02 4.599790e+12
6.700000e+01 2.049017e-01 7.634796e-02 4.507940e+12
6.800000e+01 2.031909e-01 7.581156e-02 4.417644e+12
6.900000e+01 2.015181e-01 7.528607e-02 4.328890e+12
7.000000e+01 1.998819e-01 7.477113e-02 4.241663e+12
7.100000e+01 1.982805e-01 7.426640e-02 4.155950e+12
7.200000e+01 1.967142e-01 7.377154e-02 4.071738e+12
7.300000e+01 1.951803e-01 7.328623e-02 3.989011e+12
7.400000e+01 1.936787e-01 7.281015e-02 3.907753e+12
7.500000e+01 1.922076e-01 7.234304e-02 3.827948e+12
7.600000e+01 1.907668e-01 7.188460e-02 3.749581e+12
7.700000e+01 1.893549e-01 7.143458e-02 3.672633e+12
7.800000e+01 1.879703e-01 7.099271e-02 3.597088e+12
7.900000e+01 1.866141e-01 7.055875e-02 3.522928e+12
8.000000e+01 1.852835e-01 7.013249e-02 3.450136e+12
8.100000e+01 1.839785e-01 6.971366e-02 3.378694e+12
8.200000e+01 1.826988e-01 6.930208e-02 3.308583e+12
8.300000e+01 1.814420e-01 6.889754e-02 3.239787e+12
8.400000e+01 1.802100e-01 6.849984e-02 3.172284e+12
8.500000e+01 1.789998e-01 6.810877e-02 3.106059e+12
8.600000e+01 1.778113e-01 6.772416e-02 3.041093e+12
8.700000e+01 1.766454e-01 6.734585e-02 2.977365e+12
8.800000e+01 1.754990e-01 6.697364e-02 2.914859e+12
8.900000e+01 1.743728e-01 6.660740e-02 2.853556e+12
9.000000e+01 1.732671e-01 6.624695e-02 2.793438e+12
9.100000e+01 1.721799e-01 6.589215e-02 2.734485e+12
9.200000e+01 1.711114e-01 6.554283e-02 2.676681e+12
9.300000e+01 1.700613e-01 6.519889e-02 2.620005e+12
9.400000e+01 1.690283e-01 6.486017e-02 2.564441e+12
9.500000e+01 1.680119e-01 6.452654e-02 2.509969e+12
9.600000e+01 1.670136e-01 6.419788e-02 2.456573e+12
9.700000e+01 1.660311e-01 6.387407e-02 2.404234e+12
9.800000e+01 1.650632e-01 6.355499e-02 2.352935e+12
9.900000e+01 1.641124e-01 6.324050e-02 2.302657e+12
1.000000e+02 1.631760e-01 6.293054e-02 2.253385e+12
1.010000e+02 1.622541e-01 6.262498e-02 2.205099e+12
1.020000e+02 1.613464e-01 6.232371e-02 2.157784e+12
1.030000e+02 1.604535e-01 6.202663e-02 2.111423e+12
1.040000e+02 1.595738e-01 6.173366e-02 2.065997e+12
1.050000e+02 1.587060e-01 6.144470e-02 2.021492e+12
1.060000e+02 1.578526e-01 6.115965e-02 1.977891e+12
1.070000e+02 1.570122e-01 6.087844e-02 1.935176e+12
1.080000e+02 1.561836e-01 6.060097e-02 1.893335e+12
1.090000e+02 1.553664e-01 6.032718e-02 1.852349e+12
1.100000e+02 1.545620e-01 6.005696e-02 1.812203e+12
1.110000e+02 1.537694e-01 5.979024e-02 1.772882e+12
1.120000e+02 1.529871e-01 5.952695e-02 1.734370e+12
1.130000e+02 1.522163e-01 5.926703e-02 1.696653e+12
1.140000e+02 1.514555e-01 5.901040e-02 1.659716e+12
1.150000e+02 1.507067e-01 5.875698e-02 1.623545e+12
1.160000e+02 1.499679e-01 5.850672e-02 1.588124e+12
1.170000e+02 1.492382e-01 5.825953e-02 1.553441e+12
1.180000e+02 1.485177e-01 5.801539e-02 1.519479e+12
1.190000e+02 1.478093e-01 5.777421e-02 1.486226e+12
1.200000e+02 1.471095e-01 5.753594e-02 1.453669e+12
1.210000e+02 1.464189e-01 5.730052e-02 1.421795e+12
1.220000e+02 1.457357e-01 5.706787e-02 1.390590e+12
1.230000e+02 1.450619e-01 5.683797e-02 1.360040e+12
1.240000e+02 1.443994e-01 5.661075e-02 1.330135e+12
1.250000e+02 1.437435e-01 5.638616e-02 1.300860e+12
1.260000e+02 1.430957e-01 5.616415e-02 1.272203e+12
1.270000e+02 1.424559e-01 5.594470e-02 1.244153e+12
1.280000e+02 1.418234e-01 5.572773e-02 1.216696e+12
1.290000e+02 1.412011e-01 5.551320e-02 1.189823e+12
1.300000e+02 1.405857e-01 5.530105e-02 1.163521e+12
1.310000e+02 1.399772e-01 5.509125e-02 1.137780e+12
1.320000e+02 1.393757e-01 5.488377e-02 1.112586e+12
1.330000e+02 1.387808e-01 5.467858e-02 1.087930e+12
1.340000e+02 1.381946e-01 5.447559e-02 1.063802e+12
1.350000e+02 1.376159e-01 5.427480e-02 1.040190e+12
1.360000e+02 1.370435e-01 5.407616e-02 1.017084e+12
1.370000e+02 1.364772e-01 5.387964e-02 9.944732e+11
1.380000e+02 1.359170e-01 5.368518e-02 9.723488e+11
1.390000e+02 1.353623e-01 5.349276e-02 9.507012e+11
1.400000e+02 1.348165e-01 5.330236e-02 9.295196e+11
1.410000e+02 1.342771e-01 5.311391e-02 9.087946e+11
1.420000e+02 1.337429e-01 5.292737e-02 8.885187e+11
1.430000e+02 1.332158e-01 5.274279e-02 8.686790e+11
1.440000e+02 1.326933e-01 5.256004e-02 8.492695e+11
1.450000e+02 1.321742e-01 5.237913e-02 8.302813e+11
1.460000e+02 1.316627e-01 5.220008e-02 8.117039e+11
1.470000e+02 1.311590e-01 5.202275e-02 7.935311e+11
1.480000e+02 1.306593e-01 5.184712e-02 7.757554e+11
1.490000e+02 1.301652e-01 5.167336e-02 7.583617e+11
1.500000e+02 1.296767e-01 5.150126e-02 7.413480e+11
1.510000e+02 1.291911e-01 5.133065e-02 7.247105e+11
1.520000e+02 1.287099e-01 5.116182e-02 7.084335e+11
1.530000e+02 1.282384e-01 5.099477e-02 6.925065e+11
1.540000e+02 1.277707e-01 5.082899e-02 6.769360e+11
1.550000e+02 1.273047e-01 5.066486e-02 6.617055e+11
1.560000e+02 1.268481e-01 5.050255e-02 6.468011e+11
1.570000e+02 1.263926e-01 5.034136e-02 6.322335e+11
1.580000e+02 1.259405e-01 5.018189e-02 6.179808e+11
1.590000e+02 1.254960e-01 5.002389e-02 6.040398e+11
1.600000e+02 1.250537e-01 4.986718e-02 5.904109e+11
1.610000e+02 1.246205e-01 4.971218e-02 5.770747e+11
1.620000e+02 1.241871e-01 4.955822e-02 5.640409e+11
1.630000e+02 1.237613e-01 4.940602e-02 5.512861e+11
1.640000e+02 1.233356e-01 4.925481e-02 5.388205e+11
1.650000e+02 1.229178e-01 4.910531e-02 5.266237e+11
1.660000e+02 1.224993e-01 4.895677e-02 5.147030e+11
1.670000e+02 1.220887e-01 4.880991e-02 5.030390e+11
1.680000e+02 1.216799e-01 4.866398e-02 4.916401e+11
1.690000e+02 1.212799e-01 4.851964e-02 4.804879e+11
1.700000e+02 1.208763e-01 4.837619e-02 4.695897e+11
1.710000e+02 1.204853e-01 4.823434e-02 4.589259e+11
1.720000e+02 1.200903e-01 4.809352e-02 4.485036e+11
1.730000e+02 1.197012e-01 4.795380e-02 4.383139e+11
1.740000e+02 1.193169e-01 4.781553e-02 4.283463e+11
1.750000e+02 1.189316e-01 4.767818e-02 4.186047e+11
1.760000e+02 1.185569e-01 4.754212e-02 4.090781e+11
1.770000e+02 1.181816e-01 4.740715e-02 3.997648e+11
1.780000e+02 1.178101e-01 4.727326e-02 3.906594e+11
1.790000e+02 1.174445e-01 4.714051e-02 3.817565e+11
1.800000e+02 1.170795e-01 4.700884e-02 3.730529e+11
1.810000e+02 1.167164e-01 4.687826e-02 3.645440e+11
1.820000e+02 1.163600e-01 4.674871e-02 3.562255e+11
1.830000e+02 1.160043e-01 4.662021e-02 3.480932e+11
1.840000e+02 1.156485e-01 4.649270e-02 3.401434e+11
1.850000e+02 1.153013e-01 4.636631e-02 3.323708e+11
1.860000e+02 1.149584e-01 4.624085e-02 3.247730e+11
1.870000e+02 1.146152e-01 4.611641e-02 3.173456e+11
1.880000e+02 1.142741e-01 4.599291e-02 3.100859e+11
1.890000e+02 1.139376e-01 4.587039e-02 3.029888e+11
1.900000e+02 1.136054e-01 4.574882e-02 2.960509e+11
1.910000e+02 1.132743e-01 4.562821e-02 2.892693e+11
1.920000e+02 1.129440e-01 4.550852e-02 2.826404e+11
1.930000e+02 1.126157e-01 4.538972e-02 2.761611e+11
1.940000e+02 1.122911e-01 4.527183e-02 2.698274e+11
1.950000e+02 1.119731e-01 4.515484e-02 2.636369e+11
1.960000e+02 1.116578e-01 4.503878e-02 2.575857e+11
1.970000e+02 1.113439e-01 4.492358e-02 2.516709e+11
1.980000e+02 1.110302e-01 4.480919e-02 2.458900e+11
1.990000e+02 1.107188e-01 4.469566e-02 2.402401e+11
2.000000e+02 1.104110e-01 4.458299e-02 2.347178e+11
2.010000e+02 1.101063e-01 4.447115e-02 2.293199e+11
2.020000e+02 1.098042e-01 4.436010e-02 2.240449e+11
2.030000e+02 1.095036e-01 4.424985e-02 2.188897e+11
2.040000e+02 1.092048e-01 4.414041e-02 2.138509e+11
2.050000e+02 1.089071e-01 4.403179e-02 2.089260e+11
2.060000e+02 1.086145e-01 4.392390e-02 2.041133e+11
2.070000e+02 1.083238e-01 4.381684e-02 1.994095e+11
2.080000e+02 1.080356e-01 4.371052e-02 1.948128e+11
2.090000e+02 1.077485e-01 4.360493e-02 1.903203e+11
2.100000e+02 1.074641e-01 4.350008e-02 1.859300e+11
2.110000e+02 1.071822e-01 4.339598e-02 1.816397e+11
2.120000e+02 1.069017e-01 4.329264e-02 1.774466e+11
2.130000e+02 1.066226e-01 4.318997e-02 1.733491e+11
2.140000e+02 1.063446e-01 4.308796e-02 1.693456e+11
2.150000e+02 1.060703e-01 4.298674e-02 1.654326e+11
2.160000e+02 1.057977e-01 4.288623e-02 1.616084e+11
2.170000e+02 1.055275e-01 4.278640e-02 1.578716e+11
2.180000e+02 1.052606e-01 4.268719e-02 1.542206e+11
2.190000e+02 1.049954e-01 4.258874e-02 1.506522e+11
2.200000e+02 1.047329e-01 4.249095e-02 1.471655e+11
2.210000e+02 1.044714e-01 4.239381e-02 1.437581e+11
2.220000e+02 1.042133e-01 4.229732e-02 1.404289e+11
2.230000e+02 1.039550e-01 4.220150e-02 1.371757e+11
2.240000e+02 1.036994e-01 4.210630e-02 1.339971e+11
2.250000e+02 1.034459e-01 4.201173e-02 1.308908e+11
2.260000e+02 1.031939e-01 4.191785e-02 1.278553e+11
2.270000e+02 1.029452e-01 4.182469e-02 1.248889e+11
2.280000e+02 1.026972e-01 4.173204e-02 1.219908e+11
2.290000e+02 1.024487e-01 4.163997e-02 1.191593e+11
2.300000e+02 1.022041e-01 4.154843e-02 1.163930e+11
2.310000e+02 1.019603e-01 4.145748e-02 1.136900e+11
2.320000e+02 1.017166e-01 4.136696e-02 1.110497e+11
2.330000e+02 1.014737e-01 4.127696e-02 1.084708e+11
2.340000e+02 1.012325e-01 4.118755e-02 1.059511e+11
2.350000e+02 1.009947e-01 4.109875e-02 1.034891e+11
2.360000e+02 1.007615e-01 4.101072e-02 1.010825e+11
2.370000e+02 1.005309e-01 4.092341e-02 9.873046e+10
2.380000e+02 1.003041e-01 4.083676e-02 9.643191e+10
2.390000e+02 1.000719e-01 4.075046e-02 9.418676e+10
2.400000e+02 9.983794e-02 4.066429e-02 9.199505e+10
2.410000e+02 9.960589e-02 4.057861e-02 8.985428e+10
2.420000e+02 9.937773e-02 4.049360e-02 8.776243e+10
2.430000e+02 9.915363e-02 4.040925e-02 8.571815e+10
2.440000e+02 9.893316e-02 4.032567e-02 8.372002e+10
2.450000e+02 9.871521e-02 4.024264e-02 8.176751e+10
2.460000e+02 9.849441e-02 4.015989e-02 7.986078e+10
2.470000e+02 9.827255e-02 4.007742e-02 7.799885e+10
2.480000e+02 9.805250e-02 3.999528e-02 7.618068e+10
2.490000e+02 9.783740e-02 3.991382e-02 7.440421e+10
2.500000e+02 9.762830e-02 3.983334e-02 7.266690e+10
2.510000e+02 9.741785e-02 3.975341e-02 7.096899e+10
2.520000e+02 9.720229e-02 3.967340e-02 6.931201e+10
2.530000e+02 9.698599e-02 3.959356e-02 6.769499e+10
2.540000e+02 9.677884e-02 3.951454e-02 6.611407e+10
2.550000e+02 9.657289e-02 3.943636e-02 6.456864e+10
2.560000e+02 9.636799e-02 3.935860e-02 6.305861e+10
2.570000e+02 9.616038e-02 3.928104e-02 6.158449e+10
2.580000e+02 9.595233e-02 3.920363e-02 6.014536e+10
2.590000e+02 9.574578e-02 3.912678e-02 5.873956e+10
2.600000e+02 9.555021e-02 3.905085e-02 5.736481e+10
2.610000e+02 9.535236e-02 3.897537e-02 5.602161e+10
2.620000e+02 9.514940e-02 3.889985e-02 5.471076e+10
2.630000e+02 9.494885e-02 3.882456e-02 5.343109e+10
2.640000e+02 9.475775e-02 3.875018e-02 5.218016e+10
2.650000e+02 9.456695e-02 3.867652e-02 5.095707e+10
2.660000e+02 9.436820e-02 3.860280e-02 4.976341e+10
2.670000e+02 9.416915e-02 3.852910e-02 4.859868e+10
2.680000e+02 9.398539e-02 3.845659e-02 4.745941e+10
2.690000e+02 9.379774e-02 3.838449e-02 4.634591e+10
2.700000e+02 9.359749e-02 3.831205e-02 4.526027e+10
2.710000e+02 9.340909e-02 3.824019e-02 4.419977e+10
2.720000e+02 9.322849e-02 3.816951e-02 4.316208e+10
2.730000e+02 9.304204e-02 3.809885e-02 4.214879e+10
2.740000e+02 9.284493e-02 3.802775e-02 4.116132e+10
2.750000e+02 9.266628e-02 3.795783e-02 4.019532e+10
2.760000e+02 9.249228e-02 3.788894e-02 3.925011e+10
2.770000e+02 9.229506e-02 3.781888e-02 3.832977e+10
2.780000e+02 9.211416e-02 3.774966e-02 3.743072e+10
2.790000e+02 9.194856e-02 3.768206e-02 3.654964e+10
2.800000e+02 9.176135e-02 3.761351e-02 3.569148e+10
2.810000e+02 9.157715e-02 3.754513e-02 3.485413e+10
2.820000e+02 9.141365e-02 3.747846e-02 3.403371e+10
2.830000e+02 9.123875e-02 3.741154e-02 3.323316e+10
2.840000e+02 9.104675e-02 3.734370e-02 3.245365e+10
2.850000e+02 9.089045e-02 3.727825e-02 3.168937e+10
2.860000e+02 9.071569e-02 3.721234e-02 3.094339e+10
2.870000e+02 9.052864e-02 3.714573e-02 3.021714e+10
2.880000e+02 9.037489e-02 3.708119e-02 2.950522e+10
2.890000e+02 9.019789e-02 3.701629e-02 2.881026e+10
2.900000e+02 9.002134e-02 3.695082e-02 2.813360e+10
2.910000e+02 8.986264e-02 3.688720e-02 2.747033e+10
2.920000e+02 8.969374e-02 3.682332e-02 2.682313e+10
2.930000e+02 8.951433e-02 3.675873e-02 2.619292e+10
2.940000e+02 8.936673e-02 3.669659e-02 2.557440e+10
2.950000e+02 8.918793e-02 3.663301e-02 2.497247e+10
2.960000e+02 8.902146e-02 3.656999e-02 2.438467e+10
2.970000e+02 8.887731e-02 3.650876e-02 2.380857e+10
2.980000e+02 8.869251e-02 3.644550e-02 2.324861e+10
2.990000e+02 8.854985e-02 3.638451e-02 2.270002e+10
3.000000e+02 8.838500e-02 3.632315e-02 2.216427e+10
3.010000e+02 8.821820e-02 3.626132e-02 2.164262e+10
3.020000e+02 8.807495e-02 3.620145e-02 2.113106e+10
3.030000e+02 8.790470e-02 3.614034e-02 2.063297e+10
3.040000e+02 8.775140e-02 3.608007e-02 2.014654e+10
3.050000e+02 8.760380e-02 3.602104e-02 1.966989e+10
3.060000e+02 8.743024e-02 3.596018e-02 1.920708e+10
3.070000e+02 8.729659e-02 3.590214e-02 1.875246e+10
3.080000e+02 8.712589e-02 3.584243e-02 1.831012e+10
3.090000e+02 8.698084e-02 3.578367e-02 1.787813e+10
3.100000e+02 8.683309e-02 3.572614e-02 1.745466e+10
3.110000e+02 8.666509e-02 3.566661e-02 1.704384e+10
3.120000e+02 8.653714e-02 3.561027e-02 1.663971e+10
3.130000e+02 8.636554e-02 3.555160e-02 1.624736e+10
3.140000e+02 8.622873e-02 3.549467e-02 1.586328e+10
3.150000e+02 8.607933e-02 3.543827e-02 1.548752e+10
3.160000e+02 8.591703e-02 3.538011e-02 1.512278e+10
3.170000e+02 8.579526e-02 3.532564e-02 1.476345e+10
3.180000e+02 8.561676e-02 3.526729e-02 1.441599e+10
3.190000e+02 8.550711e-02 3.521332e-02 1.407364e+10
3.200000e+02 8.533101e-02 3.515624e-02 1.374150e+10
3.210000e+02 8.521325e-02 3.510159e-02 1.341616e+10
3.220000e+02 8.505545e-02 3.504654e-02 1.309824e+10
3.230000e+02 8.491850e-02 3.499084e-02 1.278924e+10
3.240000e+02 8.478365e-02 3.493778e-02 1.248504e+10
3.250000e+02 8.462615e-02 3.488135e-02 1.219119e+10
3.260000e+02 8.451125e-02 3.482971e-02 1.190062e+10
3.270000e+02 8.433845e-02 3.477317e-02 1.162067e+10
3.280000e+02 8.423885e-02 3.472230e-02 1.134367e+10
3.290000e+02 8.405674e-02 3.466641e-02 1.107639e+10
3.300000e+02 8.396554e-02 3.461559e-02 1.081289e+10
3.310000e+02 8.378329e-02 3.456105e-02 1.055725e+10
3.320000e+02 8.368894e-02 3.450954e-02 1.030697e+10
3.330000e+02 8.351719e-02 3.445687e-02 1.006221e+10
3.340000e+02 8.340709e-02 3.440423e-02 9.824619e+09
3.350000e+02 8.325784e-02 3.435364e-02 9.590343e+09
3.360000e+02 8.312809e-02 3.430005e-02 9.364533e+09
3.370000e+02 8.299803e-02 3.425108e-02 9.140672e+09
3.380000e+02 8.285568e-02 3.419720e-02 8.925647e+09
3.390000e+02 8.273703e-02 3.414915e-02 8.712140e+09
3.400000e+02 8.258688e-02 3.409545e-02 8.507158e+09
3.410000e+02 8.247786e-02 3.404818e-02 8.303570e+09
3.420000e+02 8.232096e-02 3.399456e-02 8.108238e+09
3.430000e+02 8.222706e-02 3.394830e-02 7.913953e+09
3.440000e+02 8.205891e-02 3.389454e-02 7.727949e+09
3.450000e+02 8.197296e-02 3.384905e-02 7.542606e+09
3.460000e+02 8.180600e-02 3.379555e-02 7.365320e+09
3.470000e+02 8.171570e-02 3.375049e-02 7.188647e+09
3.480000e+02 8.155535e-02 3.369768e-02 7.019611e+09
3.490000e+02 8.146445e-02 3.365303e-02 6.851125e+09
3.500000e+02 8.130020e-02 3.360034e-02 6.690155e+09
3.510000e+02 8.122070e-02 3.355655e-02 6.529339e+09
3.520000e+02 8.104880e-02 3.350406e-02 6.375990e+09
3.530000e+02 8.097245e-02 3.346077e-02 6.222651e+09
3.540000e+02 8.080864e-02 3.340865e-02 6.076507e+09
3.550000e+02 8.071789e-02 3.336569e-02 5.930301e+09
3.560000e+02 8.057029e-02 3.331410e-02 5.791033e+09
3.570000e+02 8.047294e-02 3.327146e-02 5.651598e+09
3.580000e+02 8.033089e-02 3.322055e-02 5.518840e+09
3.590000e+02 8.021749e-02 3.317791e-02 5.385995e+09
3.600000e+02 8.011039e-02 3.312854e-02 5.259284e+09
3.610000e+02 7.995994e-02 3.308447e-02 5.133039e+09
3.620000e+02 7.988344e-02 3.303744e-02 5.011741e+09
3.630000e+02 7.971138e-02 3.299177e-02 4.891891e+09
3.640000e+02 7.966113e-02 3.294771e-02 4.775606e+09
3.650000e+02 7.945848e-02 3.289906e-02 4.662329e+09
3.660000e+02 7.943868e-02 3.285898e-02 4.550441e+09
3.670000e+02 7.921983e-02 3.280797e-02 4.443397e+09
3.680000e+02 7.919959e-02 3.277040e-02 4.335991e+09
3.690000e+02 7.899921e-02 3.271796e-02 4.234649e+09
3.700000e+02 7.895766e-02 3.268195e-02 4.131646e+09
3.710000e+02 7.879416e-02 3.263031e-02 4.035301e+09
3.720000e+02 7.869816e-02 3.259215e-02 3.937406e+09
3.730000e+02 7.860095e-02 3.254469e-02 3.844927e+09
3.740000e+02 7.844540e-02 3.250267e-02 3.752464e+09
3.750000e+02 7.840625e-02 3.246054e-02 3.663296e+09
3.760000e+02 7.819610e-02 3.241347e-02 3.576400e+09
3.770000e+02 7.819265e-02 3.237690e-02 3.490148e+09
3.780000e+02 7.798850e-02 3.232667e-02 3.408343e+09
3.790000e+02 7.794950e-02 3.229168e-02 3.325552e+09
3.800000e+02 7.779305e-02 3.224283e-02 3.247684e+09
3.810000e+02 7.769450e-02 3.220530e-02 3.169082e+09
3.820000e+02 7.761545e-02 3.216110e-02 3.094227e+09
3.830000e+02 7.744699e-02 3.211870e-02 3.020216e+09
