# Energy [eV] 	 Beamline Spectrum [ph/s/350mA/0.1%bW]
1.000000000000000000e+02 1.600535033101976156e+09
2.000000000000000000e+02 2.315909297423099995e+09
3.000000000000000000e+02 3.020270119187648773e+09
4.000000000000000000e+02 3.710902529168599606e+09
5.000000000000000000e+02 4.383381854093590736e+09
6.000000000000000000e+02 4.832530828087944984e+09
7.000000000000000000e+02 5.267739790081232071e+09
8.000000000000000000e+02 5.689113589756431580e+09
9.000000000000000000e+02 6.097799515069854736e+09
1.000000000000000000e+03 6.415365987014750481e+09
1.100000000000000000e+03 6.721878353836448669e+09
1.200000000000000000e+03 7.016397052041407585e+09
1.300000000000000000e+03 7.299737014723906517e+09
1.400000000000000000e+03 7.526900926878890038e+09
1.500000000000000000e+03 7.743257279727658272e+09
1.600000000000000000e+03 7.948993142374461174e+09
1.700000000000000000e+03 8.143916661186599731e+09
1.800000000000000000e+03 8.294080781377367973e+09
1.900000000000000000e+03 8.432083308239583969e+09
2.000000000000000000e+03 8.554943720702815056e+09
2.100000000000000000e+03 8.753676704634794235e+09
2.200000000000000000e+03 8.599591143237800598e+09
2.300000000000000000e+03 8.889368719638364792e+09
2.400000000000000000e+03 9.253959975732933044e+09
2.500000000000000000e+03 9.520095772038892746e+09
2.600000000000000000e+03 9.700222044647462845e+09
2.700000000000000000e+03 9.851068602001409531e+09
2.800000000000000000e+03 1.019156454519693565e+10
2.900000000000000000e+03 1.053965610757027054e+10
3.000000000000000000e+03 1.069291579333918762e+10
3.100000000000000000e+03 1.086705232413236046e+10
3.200000000000000000e+03 1.101322997497904015e+10
3.300000000000000000e+03 1.102951158356534195e+10
3.400000000000000000e+03 1.123800591605257034e+10
3.500000000000000000e+03 1.145622273810067558e+10
3.600000000000000000e+03 1.164276377293356895e+10
3.700000000000000000e+03 1.180786801877391624e+10
3.800000000000000000e+03 1.203852375058172035e+10
3.900000000000000000e+03 1.235424806146718025e+10
4.000000000000000000e+03 1.244697689811701775e+10
4.100000000000000000e+03 1.262304248450486183e+10
4.200000000000000000e+03 1.285690235156412888e+10
4.300000000000000000e+03 1.308746687489832878e+10
4.400000000000000000e+03 1.312908206666127205e+10
4.500000000000000000e+03 1.312639955497041702e+10
4.600000000000000000e+03 1.341695885664755058e+10
4.700000000000000000e+03 1.338217661399218178e+10
4.800000000000000000e+03 1.336820700969516754e+10
4.900000000000000000e+03 1.379961282970176697e+10
5.000000000000000000e+03 1.408732703154368210e+10
5.100000000000000000e+03 1.426349343652977943e+10
5.200000000000000000e+03 1.428630852514432335e+10
5.300000000000000000e+03 1.452526419456587219e+10
5.400000000000000000e+03 1.469760983942922592e+10
5.500000000000000000e+03 1.474203894368091583e+10
5.600000000000000000e+03 1.486546310983337784e+10
5.700000000000000000e+03 1.505515497946483040e+10
5.800000000000000000e+03 1.528500060688612938e+10
5.900000000000000000e+03 1.511344056075005913e+10
6.000000000000000000e+03 1.528307920249244308e+10
6.100000000000000000e+03 1.565992146943260384e+10
6.200000000000000000e+03 1.567815571054262733e+10
6.300000000000000000e+03 1.576718649489320183e+10
6.400000000000000000e+03 1.589530453669928741e+10
6.500000000000000000e+03 1.602932553921295738e+10
6.600000000000000000e+03 1.632725642396737480e+10
6.700000000000000000e+03 1.654413391206788254e+10
6.800000000000000000e+03 1.638967788747635269e+10
6.900000000000000000e+03 1.633815773280780983e+10
7.000000000000000000e+03 1.650734416259704399e+10
7.100000000000000000e+03 1.704551441991434860e+10
7.200000000000000000e+03 1.687800342479345512e+10
7.300000000000000000e+03 1.678911070419370842e+10
7.400000000000000000e+03 1.689914654743382645e+10
7.500000000000000000e+03 1.702778470407705307e+10
7.600000000000000000e+03 1.709144945597415352e+10
7.700000000000000000e+03 1.710839220364921379e+10
7.800000000000000000e+03 1.735185580121236801e+10
7.900000000000000000e+03 1.741669604576917648e+10
8.000000000000000000e+03 1.738934906960308456e+10
8.100000000000000000e+03 1.753629840079088593e+10
8.200000000000000000e+03 1.773273562548842621e+10
8.300000000000000000e+03 1.784175821467319870e+10
8.400000000000000000e+03 1.754723010885391998e+10
8.500000000000000000e+03 1.762504156195296478e+10
8.600000000000000000e+03 1.781364410165709686e+10
8.700000000000000000e+03 1.799410408122763443e+10
8.800000000000000000e+03 1.775026749285007095e+10
8.900000000000000000e+03 1.769713649268402481e+10
9.000000000000000000e+03 1.808653381093465805e+10
9.100000000000000000e+03 1.805989529461563492e+10
9.200000000000000000e+03 1.805404271616779327e+10
9.300000000000000000e+03 1.811599562989949799e+10
9.400000000000000000e+03 1.836842415189420319e+10
9.500000000000000000e+03 1.829544176555134964e+10
9.600000000000000000e+03 1.797504658322322083e+10
9.700000000000000000e+03 1.802071626423847198e+10
9.800000000000000000e+03 1.794006264311449814e+10
9.900000000000000000e+03 1.749692748801599884e+10
1.000000000000000000e+04 1.554488873802947998e+10
1.010000000000000000e+04 1.248283577579334259e+10
1.020000000000000000e+04 1.017341028529579163e+10
1.030000000000000000e+04 1.179319658465050507e+10
1.040000000000000000e+04 1.236435742958744621e+10
1.050000000000000000e+04 1.261514719570083046e+10
1.060000000000000000e+04 1.281165677286673927e+10
1.070000000000000000e+04 1.287256857674689674e+10
1.080000000000000000e+04 1.289991477064149284e+10
1.090000000000000000e+04 1.290980322899782562e+10
1.100000000000000000e+04 1.276222070476528358e+10
1.110000000000000000e+04 1.259292470206224251e+10
1.120000000000000000e+04 1.240906027085249519e+10
1.130000000000000000e+04 1.208062161220467567e+10
1.140000000000000000e+04 1.141676825096348953e+10
1.150000000000000000e+04 1.048317980147017479e+10
1.160000000000000000e+04 9.282403721196062088e+09
1.170000000000000000e+04 8.783348216306543350e+09
1.180000000000000000e+04 8.648923246728324890e+09
1.190000000000000000e+04 8.447486294762174606e+09
1.200000000000000000e+04 7.852908451955532074e+09
1.210000000000000000e+04 7.308864990530088425e+09
1.220000000000000000e+04 7.343294662463547707e+09
1.230000000000000000e+04 7.500369018844738960e+09
1.240000000000000000e+04 7.523299022131096840e+09
1.250000000000000000e+04 7.226526476075563431e+09
1.260000000000000000e+04 7.147196660271903038e+09
1.270000000000000000e+04 7.051283552126753807e+09
1.280000000000000000e+04 6.895622403667931557e+09
1.290000000000000000e+04 6.507590460207701683e+09
1.300000000000000000e+04 6.274179837941095352e+09
1.310000000000000000e+04 6.193220013070814133e+09
1.320000000000000000e+04 5.888515582513055801e+09
1.330000000000000000e+04 5.490230521605812073e+09
1.340000000000000000e+04 5.137692445750251770e+09
1.350000000000000000e+04 5.255886053563371658e+09
1.360000000000000000e+04 5.088943077940939903e+09
1.370000000000000000e+04 4.802695396155120850e+09
1.380000000000000000e+04 4.625959862938039780e+09
1.390000000000000000e+04 4.495357520846652031e+09
1.400000000000000000e+04 4.309787423169099808e+09
1.410000000000000000e+04 3.946840725308883667e+09
1.420000000000000000e+04 3.677301966734594822e+09
1.430000000000000000e+04 3.453461677202295303e+09
1.440000000000000000e+04 3.275787369312127113e+09
1.450000000000000000e+04 3.018084862233821869e+09
1.460000000000000000e+04 2.810927940005800724e+09
1.470000000000000000e+04 2.679242320799539089e+09
1.480000000000000000e+04 2.508041512870484352e+09
1.490000000000000000e+04 2.317833749532472610e+09
1.500000000000000000e+04 2.124031557778077126e+09
1.510000000000000000e+04 2.131882260074599266e+09
1.520000000000000000e+04 2.025018776691266537e+09
1.530000000000000000e+04 1.857193395561400652e+09
1.540000000000000000e+04 1.779630581756516933e+09
1.550000000000000000e+04 1.683181720366336107e+09
1.560000000000000000e+04 1.561499781587168217e+09
1.570000000000000000e+04 1.381722947591422558e+09
1.580000000000000000e+04 1.357765880656992197e+09
1.590000000000000000e+04 1.317204553067385197e+09
1.600000000000000000e+04 1.126140135995588064e+09
1.610000000000000000e+04 1.021248806745627284e+09
1.620000000000000000e+04 9.409528520368630886e+08
1.630000000000000000e+04 8.745497659431763887e+08
1.640000000000000000e+04 8.004401339305973053e+08
1.650000000000000000e+04 7.448105310045847893e+08
1.660000000000000000e+04 7.112818649536099434e+08
1.670000000000000000e+04 6.361361146412205696e+08
1.680000000000000000e+04 5.904353063480025530e+08
1.690000000000000000e+04 5.645664479168052673e+08
1.700000000000000000e+04 4.834561971420743465e+08
1.710000000000000000e+04 4.459364275073092580e+08
1.720000000000000000e+04 4.309216867831640244e+08
1.730000000000000000e+04 3.958588136767480373e+08
1.740000000000000000e+04 3.551781799545054436e+08
1.750000000000000000e+04 3.210136949582930803e+08
1.760000000000000000e+04 3.145070424459236860e+08
1.770000000000000000e+04 2.964000200178083181e+08
1.780000000000000000e+04 2.737334832743871808e+08
1.790000000000000000e+04 2.482592549600425065e+08
1.800000000000000000e+04 2.251554492600935698e+08
1.810000000000000000e+04 2.011677825946781039e+08
1.820000000000000000e+04 1.753006822815685570e+08
1.830000000000000000e+04 1.717244375718269646e+08
1.840000000000000000e+04 1.671487049298792779e+08
1.850000000000000000e+04 1.599303440988896191e+08
1.860000000000000000e+04 1.467184357643236518e+08
1.870000000000000000e+04 1.302944266218597591e+08
1.880000000000000000e+04 1.130335507663519382e+08
1.890000000000000000e+04 1.100028821991963387e+08
1.900000000000000000e+04 1.016236486930941343e+08
1.910000000000000000e+04 9.136812120319564641e+07
1.920000000000000000e+04 8.590972971016617119e+07
1.930000000000000000e+04 8.158998137145707011e+07
1.940000000000000000e+04 7.737534353877086937e+07
1.950000000000000000e+04 7.226407393732261658e+07
1.960000000000000000e+04 6.969167133821757138e+07
1.970000000000000000e+04 6.571336201253854483e+07
1.980000000000000000e+04 5.786932173409501463e+07
1.990000000000000000e+04 5.575211570981904119e+07
2.000000000000000000e+04 5.055735013244761527e+07
2.010000000000000000e+04 4.016697916921928525e+07
2.020000000000000000e+04 4.220740487744373828e+07
2.030000000000000000e+04 4.078252772817546874e+07
2.040000000000000000e+04 3.577351117354905605e+07
2.050000000000000000e+04 3.671842453462399542e+07
2.060000000000000000e+04 3.483340120540343970e+07
2.070000000000000000e+04 3.117636881823551282e+07
2.080000000000000000e+04 2.918797767176836357e+07
2.090000000000000000e+04 2.851521055040436611e+07
2.100000000000000000e+04 2.840331038942418247e+07
2.110000000000000000e+04 2.789678729468965903e+07
2.120000000000000000e+04 2.530522872970889509e+07
2.130000000000000000e+04 2.258695087513330579e+07
2.140000000000000000e+04 2.134222388236551359e+07
2.150000000000000000e+04 2.103903948058903590e+07
2.160000000000000000e+04 2.028497915566005930e+07
2.170000000000000000e+04 1.840012942888976634e+07
2.180000000000000000e+04 1.808861861654454097e+07
2.190000000000000000e+04 1.738023093633751944e+07
2.200000000000000000e+04 1.597128910787763819e+07
2.210000000000000000e+04 1.587886432842799090e+07
2.220000000000000000e+04 1.538595661659788899e+07
2.230000000000000000e+04 1.447333055407994241e+07
2.240000000000000000e+04 1.298213179766431265e+07
2.250000000000000000e+04 1.255185213770243712e+07
2.260000000000000000e+04 1.258055387885822915e+07
2.270000000000000000e+04 1.123985406190939806e+07
2.280000000000000000e+04 1.078459194278980419e+07
2.290000000000000000e+04 1.061892792408761568e+07
2.300000000000000000e+04 1.005112902053234167e+07
2.310000000000000000e+04 9.780012705811629072e+06
2.320000000000000000e+04 9.489931141370726749e+06
2.330000000000000000e+04 8.949399560709513724e+06
2.340000000000000000e+04 8.344144448876646347e+06
2.350000000000000000e+04 7.749331744181682356e+06
2.360000000000000000e+04 7.190000285972828977e+06
2.370000000000000000e+04 6.718595695060224272e+06
2.380000000000000000e+04 6.607277153131285682e+06
2.390000000000000000e+04 6.894346615546394140e+06
2.400000000000000000e+04 6.156722294577052817e+06
2.410000000000000000e+04 5.539237861371816136e+06
2.420000000000000000e+04 5.081526159920531325e+06
2.430000000000000000e+04 5.267593788190830499e+06
2.440000000000000000e+04 5.309188214739492163e+06
2.450000000000000000e+04 5.246231319159450941e+06
2.460000000000000000e+04 5.090576318200594746e+06
2.470000000000000000e+04 5.061382105914979242e+06
2.480000000000000000e+04 5.012693136185618117e+06
2.490000000000000000e+04 4.742655008358578198e+06
2.500000000000000000e+04 4.307420334239544347e+06
2.510000000000000000e+04 3.973189432305334136e+06
2.520000000000000000e+04 3.939363834268483333e+06
2.530000000000000000e+04 3.790084686445096973e+06
2.540000000000000000e+04 3.578869258540795185e+06
2.550000000000000000e+04 3.303250089818316512e+06
2.560000000000000000e+04 3.241889045702604577e+06
2.570000000000000000e+04 3.111482111955585424e+06
2.580000000000000000e+04 2.901949681724538095e+06
2.590000000000000000e+04 2.942761686372350436e+06
2.600000000000000000e+04 2.880537858978406526e+06
2.610000000000000000e+04 2.733707662322530989e+06
2.620000000000000000e+04 2.536420877990448382e+06
2.630000000000000000e+04 2.474679659388510976e+06
2.640000000000000000e+04 2.460118242001550272e+06
2.650000000000000000e+04 2.329073921032777522e+06
2.660000000000000000e+04 2.230315724517953116e+06
2.670000000000000000e+04 2.156199283227949869e+06
2.680000000000000000e+04 2.116394394279227592e+06
2.690000000000000000e+04 1.968210724918590859e+06
2.700000000000000000e+04 1.907143163660074119e+06
2.710000000000000000e+04 2.058224442204641411e+06
2.720000000000000000e+04 1.928947708401806187e+06
2.730000000000000000e+04 1.777022008012817008e+06
2.740000000000000000e+04 1.642569528543605469e+06
2.750000000000000000e+04 1.584448496742358897e+06
2.760000000000000000e+04 1.566687661758052418e+06
2.770000000000000000e+04 1.581487404860859038e+06
2.780000000000000000e+04 1.515111164248924237e+06
2.790000000000000000e+04 1.449177989585413132e+06
2.800000000000000000e+04 1.376347817439009435e+06
2.810000000000000000e+04 1.253677934617434861e+06
2.820000000000000000e+04 1.231702161790945800e+06
2.830000000000000000e+04 1.258596370434051147e+06
2.840000000000000000e+04 1.280730964099057484e+06
2.850000000000000000e+04 1.278341168693659361e+06
2.860000000000000000e+04 1.225621379317547427e+06
2.870000000000000000e+04 1.068760162413457641e+06
2.880000000000000000e+04 1.061990295813478762e+06
2.890000000000000000e+04 1.071706534874733072e+06
2.900000000000000000e+04 1.055929518597142305e+06
2.910000000000000000e+04 9.887793162400498986e+05
2.920000000000000000e+04 9.303481748806037940e+05
2.930000000000000000e+04 8.890544132838256191e+05
2.940000000000000000e+04 8.568767059724803548e+05
2.950000000000000000e+04 8.455738401168175042e+05
2.960000000000000000e+04 8.535706494972894434e+05
2.970000000000000000e+04 8.726299319224994397e+05
2.980000000000000000e+04 8.250624754436510848e+05
2.990000000000000000e+04 7.528644291963262949e+05
3.000000000000000000e+04 7.854707358119990677e+05
3.010000000000000000e+04 7.831374285382893868e+05
3.020000000000000000e+04 7.564489644607763039e+05
3.030000000000000000e+04 7.009242795939579373e+05
3.040000000000000000e+04 6.886830597735398915e+05
3.050000000000000000e+04 6.611271879356654827e+05
3.060000000000000000e+04 5.699643739378968021e+05
3.070000000000000000e+04 6.167390293407518184e+05
3.080000000000000000e+04 6.454145902148615569e+05
3.090000000000000000e+04 6.069038605943265138e+05
3.100000000000000000e+04 5.232996634370303364e+05
3.110000000000000000e+04 5.263682026085890830e+05
3.120000000000000000e+04 6.299027759577793768e+05
3.130000000000000000e+04 5.476152151201080997e+05
3.140000000000000000e+04 5.141576649820987368e+05
3.150000000000000000e+04 5.157221558051289758e+05
3.160000000000000000e+04 4.653543696662402363e+05
3.170000000000000000e+04 4.497499725490847486e+05
3.180000000000000000e+04 4.590087375301974826e+05
3.190000000000000000e+04 4.897971972294505686e+05
3.200000000000000000e+04 4.899013389956686879e+05
3.210000000000000000e+04 4.702203743482813588e+05
3.220000000000000000e+04 4.287938910612586187e+05
3.230000000000000000e+04 4.240064401836382458e+05
3.240000000000000000e+04 4.202360608562048292e+05
3.250000000000000000e+04 3.985695007920641219e+05
3.260000000000000000e+04 3.842702507465199451e+05
3.270000000000000000e+04 3.678042393294116482e+05
3.280000000000000000e+04 3.466265312443919829e+05
3.290000000000000000e+04 3.530386644720357726e+05
3.300000000000000000e+04 3.639599569244183367e+05
3.310000000000000000e+04 3.768966192904805066e+05
3.320000000000000000e+04 3.518022492026616819e+05
3.330000000000000000e+04 3.338164052769935806e+05
3.340000000000000000e+04 3.201490958148514037e+05
3.350000000000000000e+04 2.980322455246149912e+05
3.360000000000000000e+04 3.127650875517094391e+05
3.370000000000000000e+04 3.341519905481562600e+05
3.380000000000000000e+04 2.992046309195446083e+05
3.390000000000000000e+04 2.686256014520392055e+05
3.400000000000000000e+04 2.493136082021647890e+05
3.410000000000000000e+04 2.560531655597552308e+05
3.420000000000000000e+04 2.595087779589779384e+05
3.430000000000000000e+04 2.568148075337185292e+05
3.440000000000000000e+04 2.441662805555667437e+05
3.450000000000000000e+04 2.428795009043927712e+05
3.460000000000000000e+04 2.319327782402733574e+05
3.470000000000000000e+04 2.063383663029167801e+05
3.480000000000000000e+04 2.062354854233427614e+05
3.490000000000000000e+04 2.167208367106140358e+05
3.500000000000000000e+04 2.345705365871087997e+05
3.510000000000000000e+04 2.142601722342889698e+05
3.520000000000000000e+04 2.102063589839725755e+05
3.530000000000000000e+04 2.164508104387663479e+05
3.540000000000000000e+04 2.162980353179181402e+05
3.550000000000000000e+04 2.013378475519467902e+05
3.560000000000000000e+04 1.837306612678787787e+05
3.570000000000000000e+04 1.834627261944077327e+05
3.580000000000000000e+04 1.911879250970870780e+05
3.590000000000000000e+04 1.909909018840790668e+05
3.600000000000000000e+04 1.649780997205784661e+05
3.610000000000000000e+04 1.818252993042855524e+05
3.620000000000000000e+04 1.955819179989259865e+05
3.630000000000000000e+04 1.892706123823724920e+05
3.640000000000000000e+04 1.402259005168473814e+05
3.650000000000000000e+04 1.285887841053302691e+05
3.660000000000000000e+04 1.675121401803377375e+05
3.670000000000000000e+04 1.509961002330605406e+05
3.680000000000000000e+04 1.421932042504824640e+05
3.690000000000000000e+04 1.422472031830157794e+05
3.700000000000000000e+04 1.629229696318233619e+05
3.710000000000000000e+04 1.525708733845004754e+05
3.720000000000000000e+04 1.298375024838673562e+05
3.730000000000000000e+04 1.483995602571546624e+05
3.740000000000000000e+04 1.490543308595721901e+05
3.750000000000000000e+04 1.410751693665893690e+05
3.760000000000000000e+04 1.309627440042287344e+05
3.770000000000000000e+04 1.249287944210367859e+05
3.780000000000000000e+04 1.239929676190163882e+05
3.790000000000000000e+04 1.316404407514808699e+05
3.800000000000000000e+04 1.078046143722441193e+05
3.810000000000000000e+04 1.077363249830615096e+05
3.820000000000000000e+04 1.530970852488271485e+05
3.830000000000000000e+04 1.310875012104480411e+05
3.840000000000000000e+04 1.067314117239884654e+05
3.850000000000000000e+04 8.585881798264198005e+04
3.860000000000000000e+04 1.115205663816099841e+05
3.870000000000000000e+04 1.156950816114934569e+05
3.880000000000000000e+04 1.039809483520354697e+05
3.890000000000000000e+04 1.074986969589258661e+05
3.900000000000000000e+04 1.121239440734525269e+05
3.910000000000000000e+04 1.134842245921417343e+05
3.920000000000000000e+04 9.594811482163894107e+04
3.930000000000000000e+04 1.024878765853984660e+05
3.940000000000000000e+04 1.138047844155493804e+05
3.950000000000000000e+04 1.104044818301166670e+05
3.960000000000000000e+04 1.102437711513793474e+05
3.970000000000000000e+04 1.058935585330713075e+05
3.980000000000000000e+04 9.140596370421927713e+04
