# Energy [eV] 	 Beamline Spectrum [ph/s/350mA/0.1%bW]
1.000000000000000000e+02 1.613004836320208073e+09
2.000000000000000000e+02 2.352446453015194893e+09
3.000000000000000000e+02 3.092648142188615322e+09
4.000000000000000000e+02 3.830992053731202126e+09
5.000000000000000000e+02 4.562996615669533730e+09
6.000000000000000000e+02 5.073276676929955482e+09
7.000000000000000000e+02 5.577981722378205299e+09
8.000000000000000000e+02 6.077205845190968513e+09
9.000000000000000000e+02 6.572169708445404053e+09
1.000000000000000000e+03 6.977585393760071754e+09
1.100000000000000000e+03 7.378982109819038391e+09
1.200000000000000000e+03 7.775320854871864319e+09
1.300000000000000000e+03 8.167485564911502838e+09
1.400000000000000000e+03 8.504631301006014824e+09
1.500000000000000000e+03 8.836999649672573090e+09
1.600000000000000000e+03 9.164770067933820724e+09
1.700000000000000000e+03 9.487687361737787247e+09
1.800000000000000000e+03 9.765740266974407196e+09
1.900000000000000000e+03 1.003637905875561333e+10
2.000000000000000000e+03 1.029587481841894722e+10
2.100000000000000000e+03 1.068854838473492622e+10
2.200000000000000000e+03 1.048372158224139786e+10
2.300000000000000000e+03 1.090390280823470306e+10
2.400000000000000000e+03 1.123640059836730194e+10
2.500000000000000000e+03 1.151192697763466835e+10
2.600000000000000000e+03 1.180129280107741356e+10
2.700000000000000000e+03 1.214496732344242859e+10
2.800000000000000000e+03 1.242825750067627525e+10
2.900000000000000000e+03 1.269391757137506104e+10
3.000000000000000000e+03 1.297299174536228371e+10
3.100000000000000000e+03 1.327726994179170799e+10
3.200000000000000000e+03 1.358589062601853180e+10
3.300000000000000000e+03 1.390250264520187759e+10
3.400000000000000000e+03 1.410662518219774246e+10
3.500000000000000000e+03 1.434410324345171547e+10
3.600000000000000000e+03 1.462821479840097046e+10
3.700000000000000000e+03 1.488306751042257881e+10
3.800000000000000000e+03 1.507131997157081985e+10
3.900000000000000000e+03 1.533440571843142891e+10
4.000000000000000000e+03 1.558830688406515121e+10
4.100000000000000000e+03 1.581269555208062172e+10
4.200000000000000000e+03 1.598224099647532654e+10
4.300000000000000000e+03 1.613450725545730782e+10
4.400000000000000000e+03 1.641813700581230164e+10
4.500000000000000000e+03 1.667660665356002235e+10
4.600000000000000000e+03 1.681863709577603531e+10
4.700000000000000000e+03 1.703414974579476547e+10
4.800000000000000000e+03 1.729629134635129166e+10
4.900000000000000000e+03 1.744640896910676956e+10
5.000000000000000000e+03 1.754383827486510468e+10
5.100000000000000000e+03 1.776632390657647705e+10
5.200000000000000000e+03 1.801044960476101303e+10
5.300000000000000000e+03 1.814539875017193604e+10
5.400000000000000000e+03 1.830765998637697601e+10
5.500000000000000000e+03 1.871677758932969284e+10
5.600000000000000000e+03 1.857544192153523254e+10
5.700000000000000000e+03 1.877003659010396576e+10
5.800000000000000000e+03 1.899574095701495361e+10
5.900000000000000000e+03 1.908806096251156616e+10
6.000000000000000000e+03 1.913914471056518936e+10
6.100000000000000000e+03 1.940385683146003723e+10
6.200000000000000000e+03 1.958060403870751953e+10
6.300000000000000000e+03 1.967481511882539368e+10
6.400000000000000000e+03 1.979483571910091019e+10
6.500000000000000000e+03 1.987203325382435226e+10
6.600000000000000000e+03 1.993826377684428024e+10
6.700000000000000000e+03 2.014164657695719528e+10
6.800000000000000000e+03 2.020823676890974426e+10
6.900000000000000000e+03 2.052098307565530396e+10
7.000000000000000000e+03 2.048335683176413345e+10
7.100000000000000000e+03 2.050064070750802994e+10
7.200000000000000000e+03 2.074150285631407928e+10
7.300000000000000000e+03 2.085783888217676926e+10
7.400000000000000000e+03 2.084128856627281570e+10
7.500000000000000000e+03 2.083006496505331802e+10
7.600000000000000000e+03 2.094680467163365173e+10
7.700000000000000000e+03 2.108228133432061768e+10
7.800000000000000000e+03 2.114021898252694321e+10
7.900000000000000000e+03 2.116309252536143494e+10
8.000000000000000000e+03 2.130915090631472015e+10
8.100000000000000000e+03 2.131734933456222916e+10
8.200000000000000000e+03 2.129903199907964706e+10
8.300000000000000000e+03 2.132210505193975449e+10
8.400000000000000000e+03 2.137578515969383240e+10
8.500000000000000000e+03 2.136744335703608322e+10
8.600000000000000000e+03 2.138399292324420547e+10
8.700000000000000000e+03 2.146605688766275406e+10
8.800000000000000000e+03 2.150974611247795486e+10
8.900000000000000000e+03 2.151668008041691208e+10
9.000000000000000000e+03 2.150025208920078278e+10
9.100000000000000000e+03 2.145709369267390442e+10
9.200000000000000000e+03 2.138693232723510361e+10
9.300000000000000000e+03 2.118175964203889084e+10
9.400000000000000000e+03 2.106875037904185486e+10
9.500000000000000000e+03 2.098935867819689178e+10
9.600000000000000000e+03 2.081146078862192154e+10
9.700000000000000000e+03 2.050085680728042984e+10
9.800000000000000000e+03 2.027764904759757614e+10
9.900000000000000000e+03 1.947328650031963348e+10
1.000000000000000000e+04 1.524996732929574966e+10
1.010000000000000000e+04 9.441519958647527695e+09
1.020000000000000000e+04 6.247675912211067200e+09
1.030000000000000000e+04 1.013246209688832283e+10
1.040000000000000000e+04 1.193610684860051918e+10
1.050000000000000000e+04 1.204592657070071983e+10
1.060000000000000000e+04 1.161242279190825462e+10
1.070000000000000000e+04 1.122123227495880699e+10
1.080000000000000000e+04 1.097677134050901222e+10
1.090000000000000000e+04 1.060744850899932671e+10
1.100000000000000000e+04 9.971508707890045166e+09
1.110000000000000000e+04 9.428270841322000504e+09
1.120000000000000000e+04 8.724831195193208694e+09
1.130000000000000000e+04 8.004313725814863205e+09
1.140000000000000000e+04 7.445901184625036240e+09
1.150000000000000000e+04 6.636313690750720024e+09
1.160000000000000000e+04 5.845359130319593430e+09
1.170000000000000000e+04 5.351883532397348404e+09
1.180000000000000000e+04 5.118872078304526329e+09
1.190000000000000000e+04 4.858745060134689331e+09
1.200000000000000000e+04 4.363290619538281441e+09
1.210000000000000000e+04 4.022995128495200157e+09
1.220000000000000000e+04 3.701163006353459358e+09
1.230000000000000000e+04 3.552147718235131741e+09
1.240000000000000000e+04 3.459017883211685658e+09
1.250000000000000000e+04 3.290299519637690544e+09
1.260000000000000000e+04 3.002082740047585964e+09
1.270000000000000000e+04 2.864211252256075382e+09
1.280000000000000000e+04 2.662577198832428455e+09
1.290000000000000000e+04 2.509753710641828537e+09
1.300000000000000000e+04 2.334067443005498409e+09
1.310000000000000000e+04 2.152882166397454739e+09
1.320000000000000000e+04 2.034464441807844162e+09
1.330000000000000000e+04 1.845653704512730122e+09
1.340000000000000000e+04 1.674590549479048491e+09
1.350000000000000000e+04 1.572242143688038588e+09
1.360000000000000000e+04 1.482558316366065025e+09
1.370000000000000000e+04 1.384055986976999760e+09
1.380000000000000000e+04 1.285619342392025709e+09
1.390000000000000000e+04 1.187489916042882919e+09
1.400000000000000000e+04 1.080362887115108013e+09
1.410000000000000000e+04 1.012017775183377504e+09
1.420000000000000000e+04 9.546777977341730595e+08
1.430000000000000000e+04 8.890512789705640078e+08
1.440000000000000000e+04 8.168427719521042109e+08
1.450000000000000000e+04 7.831141253668447733e+08
1.460000000000000000e+04 7.379506532779608965e+08
1.470000000000000000e+04 6.776612423369978666e+08
1.480000000000000000e+04 6.314399547307124138e+08
1.490000000000000000e+04 6.018658251776275635e+08
1.500000000000000000e+04 5.601990082537180185e+08
1.510000000000000000e+04 5.402108408838276863e+08
1.520000000000000000e+04 4.955129733181077242e+08
1.530000000000000000e+04 4.735616493691099882e+08
1.540000000000000000e+04 4.531099864375668764e+08
1.550000000000000000e+04 4.257254890493028760e+08
1.560000000000000000e+04 4.153159802897127867e+08
1.570000000000000000e+04 3.950438740619716644e+08
1.580000000000000000e+04 3.653797986174963117e+08
1.590000000000000000e+04 3.594666828805978894e+08
1.600000000000000000e+04 3.545483098605952859e+08
1.610000000000000000e+04 3.374336035213357210e+08
1.620000000000000000e+04 3.289963634193242192e+08
1.630000000000000000e+04 3.218090861672028303e+08
1.640000000000000000e+04 3.205331031051421165e+08
1.650000000000000000e+04 3.127224691459068060e+08
1.660000000000000000e+04 3.037851733393784761e+08
1.670000000000000000e+04 2.999071394331417680e+08
1.680000000000000000e+04 2.990050968837882876e+08
1.690000000000000000e+04 2.959821284202611446e+08
1.700000000000000000e+04 3.066381822612246275e+08
1.710000000000000000e+04 3.101012397885048389e+08
1.720000000000000000e+04 3.103942231929510832e+08
1.730000000000000000e+04 3.139048324842859507e+08
1.740000000000000000e+04 3.148637454614000320e+08
1.750000000000000000e+04 3.198214844606596828e+08
1.760000000000000000e+04 3.223065569102396965e+08
1.770000000000000000e+04 3.307012618171288967e+08
1.780000000000000000e+04 3.408330065524495840e+08
1.790000000000000000e+04 3.485687159014181495e+08
1.800000000000000000e+04 3.607532393414971232e+08
1.810000000000000000e+04 3.847745311699691415e+08
1.820000000000000000e+04 4.005071895125005841e+08
1.830000000000000000e+04 4.181732386218642592e+08
1.840000000000000000e+04 4.429563234739534855e+08
1.850000000000000000e+04 4.740941301523849368e+08
1.860000000000000000e+04 5.033823753173039556e+08
1.870000000000000000e+04 5.422132431562001705e+08
1.880000000000000000e+04 5.856411458952316046e+08
1.890000000000000000e+04 6.410873372680546045e+08
1.900000000000000000e+04 7.080707178638061285e+08
1.910000000000000000e+04 7.845272830939050913e+08
1.920000000000000000e+04 8.769794468721604347e+08
1.930000000000000000e+04 9.955750828840676546e+08
1.940000000000000000e+04 1.163351322815973520e+09
1.950000000000000000e+04 1.357097994044747114e+09
1.960000000000000000e+04 1.599694899263021708e+09
1.970000000000000000e+04 1.939775592355340004e+09
1.980000000000000000e+04 2.421338553709743500e+09
1.990000000000000000e+04 3.210063683487099171e+09
2.000000000000000000e+04 4.617799398846892357e+09
2.010000000000000000e+04 6.876904173377590179e+09
2.020000000000000000e+04 9.857920233980409622e+09
2.030000000000000000e+04 1.304058715788339996e+10
2.040000000000000000e+04 1.531623558065670586e+10
2.050000000000000000e+04 1.705983387285726166e+10
2.060000000000000000e+04 1.821614278781498337e+10
2.070000000000000000e+04 1.913471799162445068e+10
2.080000000000000000e+04 1.968467064041594696e+10
2.090000000000000000e+04 1.958239296602766418e+10
2.100000000000000000e+04 1.961220741644526672e+10
2.110000000000000000e+04 1.937347854868885803e+10
2.120000000000000000e+04 1.914404002383619690e+10
2.130000000000000000e+04 1.901786104516241837e+10
2.140000000000000000e+04 1.889712135393377686e+10
2.150000000000000000e+04 1.861603231490757370e+10
2.160000000000000000e+04 1.841432728590072632e+10
2.170000000000000000e+04 1.789271184409841919e+10
2.180000000000000000e+04 1.763284997418319321e+10
2.190000000000000000e+04 1.747480295202535629e+10
2.200000000000000000e+04 1.728326840278064728e+10
2.210000000000000000e+04 1.704754858500728989e+10
2.220000000000000000e+04 1.671406574496692276e+10
2.230000000000000000e+04 1.645805356718606758e+10
2.240000000000000000e+04 1.609772455125155258e+10
2.250000000000000000e+04 1.559408965441011238e+10
2.260000000000000000e+04 1.510174335982250214e+10
2.270000000000000000e+04 1.486052446577518845e+10
2.280000000000000000e+04 1.441978079951744461e+10
2.290000000000000000e+04 1.340510936873156738e+10
2.300000000000000000e+04 1.256996342171236610e+10
2.310000000000000000e+04 1.183068355535132027e+10
2.320000000000000000e+04 1.097583718545474434e+10
2.330000000000000000e+04 9.886009214167091370e+09
2.340000000000000000e+04 8.756836084847860336e+09
2.350000000000000000e+04 7.956307217423859596e+09
2.360000000000000000e+04 7.292964514677615166e+09
2.370000000000000000e+04 6.562338811183032990e+09
2.380000000000000000e+04 5.800447461623667717e+09
2.390000000000000000e+04 5.307043996678188324e+09
2.400000000000000000e+04 4.493482003982875824e+09
2.410000000000000000e+04 3.899936582826331615e+09
2.420000000000000000e+04 3.362872970633387089e+09
2.430000000000000000e+04 2.932217083413759232e+09
2.440000000000000000e+04 2.600747321885962963e+09
2.450000000000000000e+04 2.202937879111523151e+09
2.460000000000000000e+04 1.840725216344755650e+09
2.470000000000000000e+04 1.607278583988050938e+09
2.480000000000000000e+04 1.328474324904162169e+09
2.490000000000000000e+04 1.076677029233055115e+09
2.500000000000000000e+04 9.209144510954434872e+08
2.510000000000000000e+04 7.856220901758590937e+08
2.520000000000000000e+04 6.926485731490770578e+08
2.530000000000000000e+04 5.951989724056872129e+08
2.540000000000000000e+04 5.252107347427723408e+08
2.550000000000000000e+04 4.689624131111859679e+08
2.560000000000000000e+04 4.043919442124625444e+08
2.570000000000000000e+04 3.293760927034943104e+08
2.580000000000000000e+04 2.879020542326806784e+08
2.590000000000000000e+04 2.520793222249420583e+08
2.600000000000000000e+04 2.205145801391544044e+08
2.610000000000000000e+04 1.905375920027664006e+08
2.620000000000000000e+04 1.608592246204631031e+08
2.630000000000000000e+04 1.343067716204368770e+08
2.640000000000000000e+04 1.137502998847859055e+08
2.650000000000000000e+04 9.708709392854909599e+07
2.660000000000000000e+04 8.704541271583963931e+07
2.670000000000000000e+04 8.082693942750963569e+07
2.680000000000000000e+04 7.326785596885211766e+07
2.690000000000000000e+04 6.043368446883754432e+07
2.700000000000000000e+04 5.550780657674273849e+07
2.710000000000000000e+04 5.005217863286944479e+07
2.720000000000000000e+04 4.600826730213925987e+07
2.730000000000000000e+04 4.211713037316096574e+07
2.740000000000000000e+04 3.702858993171285838e+07
2.750000000000000000e+04 3.494687447833447158e+07
2.760000000000000000e+04 3.185163402959078550e+07
2.770000000000000000e+04 2.888834144621494785e+07
2.780000000000000000e+04 2.624778066612124071e+07
2.790000000000000000e+04 2.389091657655993477e+07
2.800000000000000000e+04 2.190431112363402545e+07
2.810000000000000000e+04 2.127441164198117331e+07
2.820000000000000000e+04 1.848257200614782423e+07
2.830000000000000000e+04 1.757575087631998211e+07
2.840000000000000000e+04 1.685345759350930154e+07
2.850000000000000000e+04 1.578514130007217824e+07
2.860000000000000000e+04 1.477608260743557103e+07
2.870000000000000000e+04 1.322861676697600260e+07
2.880000000000000000e+04 1.247095792576475814e+07
2.890000000000000000e+04 1.167829745422874391e+07
2.900000000000000000e+04 1.106360254549142532e+07
2.910000000000000000e+04 1.057814452225836553e+07
2.920000000000000000e+04 9.990968474881220609e+06
2.930000000000000000e+04 9.575450868896244094e+06
2.940000000000000000e+04 8.989686965065024793e+06
2.950000000000000000e+04 8.858600543681839481e+06
2.960000000000000000e+04 8.611583892094194889e+06
2.970000000000000000e+04 8.082151053739295341e+06
2.980000000000000000e+04 7.578612622508653440e+06
2.990000000000000000e+04 7.194688887540776283e+06
3.000000000000000000e+04 7.112556727526112460e+06
3.010000000000000000e+04 6.783184354662453756e+06
3.020000000000000000e+04 6.395974483964726329e+06
3.030000000000000000e+04 6.028147080769152381e+06
3.040000000000000000e+04 5.603096410067066550e+06
3.050000000000000000e+04 5.628579115094752051e+06
3.060000000000000000e+04 5.556670262632909231e+06
3.070000000000000000e+04 5.311102237333347090e+06
3.080000000000000000e+04 5.100712686109007336e+06
3.090000000000000000e+04 4.988030546261205338e+06
3.100000000000000000e+04 4.820651667526406236e+06
3.110000000000000000e+04 4.590175548821522854e+06
3.120000000000000000e+04 4.549905882764271460e+06
3.130000000000000000e+04 4.358328017619116232e+06
3.140000000000000000e+04 4.172132252504879609e+06
3.150000000000000000e+04 4.138957479371547233e+06
3.160000000000000000e+04 4.223563069099181332e+06
3.170000000000000000e+04 4.115374039167537820e+06
3.180000000000000000e+04 3.929260378619713243e+06
3.190000000000000000e+04 3.946615685042859055e+06
3.200000000000000000e+04 3.927519693739822134e+06
3.210000000000000000e+04 3.787933280591053888e+06
3.220000000000000000e+04 3.816633316342531703e+06
3.230000000000000000e+04 3.552434540833032224e+06
3.240000000000000000e+04 3.468389340832058340e+06
3.250000000000000000e+04 3.575151889251016546e+06
3.260000000000000000e+04 3.601859225313235074e+06
3.270000000000000000e+04 3.471420470498377923e+06
3.280000000000000000e+04 3.532573045273576397e+06
3.290000000000000000e+04 3.581684498389235232e+06
3.300000000000000000e+04 3.447516021457232535e+06
3.310000000000000000e+04 3.398288531221176032e+06
3.320000000000000000e+04 3.414839593548382167e+06
3.330000000000000000e+04 3.452961890800643247e+06
3.340000000000000000e+04 3.597858367805402260e+06
3.350000000000000000e+04 3.327945492760680616e+06
3.360000000000000000e+04 3.435165964405795559e+06
3.370000000000000000e+04 3.553005524477611296e+06
3.380000000000000000e+04 3.568051116709130816e+06
3.390000000000000000e+04 3.545169239585670177e+06
3.400000000000000000e+04 3.682750116135416552e+06
3.410000000000000000e+04 3.825959933611425571e+06
3.420000000000000000e+04 3.790802509585076477e+06
3.430000000000000000e+04 3.863492273951426614e+06
3.440000000000000000e+04 4.026384299559100065e+06
3.450000000000000000e+04 4.141636406229344197e+06
3.460000000000000000e+04 4.142599929366640281e+06
3.470000000000000000e+04 4.507962245713373646e+06
3.480000000000000000e+04 4.726528762150647119e+06
3.490000000000000000e+04 4.611291847782968543e+06
3.500000000000000000e+04 4.561774694916443899e+06
3.510000000000000000e+04 4.931831270241430029e+06
3.520000000000000000e+04 5.132963074525170028e+06
3.530000000000000000e+04 5.596394747453561984e+06
3.540000000000000000e+04 5.759978928942712024e+06
3.550000000000000000e+04 5.895751396947373636e+06
3.560000000000000000e+04 6.235372230418073013e+06
3.570000000000000000e+04 6.730098923896247521e+06
3.580000000000000000e+04 6.612964215734933503e+06
3.590000000000000000e+04 7.470026037090182304e+06
3.600000000000000000e+04 8.281192835312495008e+06
3.610000000000000000e+04 9.045026731286538765e+06
3.620000000000000000e+04 9.833667676726473495e+06
3.630000000000000000e+04 1.077272399609641731e+07
3.640000000000000000e+04 1.216650211511705816e+07
3.650000000000000000e+04 1.309906300603467785e+07
3.660000000000000000e+04 1.521361145286919735e+07
3.670000000000000000e+04 1.706666479048544168e+07
3.680000000000000000e+04 1.853125963502116129e+07
3.690000000000000000e+04 2.061569057589755580e+07
3.700000000000000000e+04 2.403698716579883546e+07
3.710000000000000000e+04 2.736217263185799122e+07
3.720000000000000000e+04 3.283674977456238493e+07
3.730000000000000000e+04 4.115388540401669592e+07
3.740000000000000000e+04 5.271514190062962472e+07
3.750000000000000000e+04 6.754515701644101739e+07
3.760000000000000000e+04 8.463475387762743235e+07
3.770000000000000000e+04 1.105187093636526763e+08
3.780000000000000000e+04 1.534509763503371179e+08
3.790000000000000000e+04 2.174809203072355092e+08
3.800000000000000000e+04 3.284613140102310181e+08
3.810000000000000000e+04 5.413833307786070108e+08
3.820000000000000000e+04 9.933788972961314917e+08
3.830000000000000000e+04 2.150424095924042225e+09
3.840000000000000000e+04 4.920308818591020584e+09
3.850000000000000000e+04 8.914832473944412231e+09
3.860000000000000000e+04 1.241307493926145172e+10
3.870000000000000000e+04 1.318017694717156792e+10
3.880000000000000000e+04 1.293485691503474426e+10
3.890000000000000000e+04 1.301462158476268387e+10
3.900000000000000000e+04 1.271395974838970375e+10
3.910000000000000000e+04 1.219749371590992355e+10
3.920000000000000000e+04 1.152417880101965904e+10
3.930000000000000000e+04 1.037917156853616714e+10
3.940000000000000000e+04 7.925164378876557350e+09
3.950000000000000000e+04 5.320483097021517754e+09
3.960000000000000000e+04 3.339799938759834766e+09
3.970000000000000000e+04 1.977702589523912191e+09
3.980000000000000000e+04 1.066554719709460974e+09
